Time [s]	Current [nA]
0.000	39.339
0.978	65.638
1.975	64.086
2.977	67.758
3.977	66.793
4.977	67.393
5.980	70.652
6.977	64.086
7.995	66.987
8.988	68.271
9.982	68.001
10.978	67.865
11.975	65.891
12.978	71.279
13.981	69.285
14.980	67.461
15.981	67.193
16.975	64.179
17.994	68.590
18.981	72.434
19.984	68.089
20.980	68.367
21.981	68.125
22.975	64.983
23.979	70.212
24.980	70.223
25.981	68.193
26.990	67.189
27.978	65.580
29.005	67.277
29.981	73.148
30.981	67.693
31.980	67.060
32.981	67.226
33.977	63.347
34.975	70.334
35.985	67.288
36.981	67.865
37.981	67.493
39.003	67.214
39.979	65.465
40.980	71.521
41.982	67.458
42.981	66.260
43.983	66.560
44.974	64.070
45.974	70.864
47.001	66.011
47.982	69.310
48.981	66.960
49.982	67.126
50.978	64.451
51.975	70.805
52.982	69.010
53.981	68.161
54.921	65.206
55.974	66.533
56.976	70.153
57.991	68.663
58.982	69.922
59.982	67.293
60.983	66.727
61.979	63.849
62.977	69.031
63.989	67.286
64.982	66.761
65.984	66.826
66.989	69.844
68.014	60.872
68.982	72.410
69.987	66.461
70.982	66.827
71.982	66.393
72.977	62.607
74.073	35.124
