Time [s]	Current [nA]
0.000	20.245
0.999	55.950
2.027	56.706
3.001	60.158
4.004	61.310
4.998	52.208
6.001	56.481
6.999	57.309
8.001	58.976
9.005	60.253
10.000	52.859
10.997	58.269
11.999	57.280
13.019	58.131
14.001	62.316
15.006	60.552
16.002	53.509
17.000	56.307
17.999	58.453
19.003	61.149
19.998	56.376
21.017	65.254
22.001	54.669
22.996	58.688
24.009	64.357
25.003	57.597
25.999	58.127
27.000	61.432
27.999	60.454
29.000	59.834
30.004	61.348
31.013	63.324
32.010	61.579
33.001	57.108
33.999	61.717
35.007	67.521
36.005	57.209
37.007	65.662
38.000	57.698
39.002	63.467
40.001	62.756
41.004	65.896
42.033	62.870
43.006	66.591
44.005	57.852
45.001	62.845
46.001	62.957
47.003	65.263
48.007	66.726
49.003	57.725
50.000	64.086
51.001	64.429
52.022	65.028
53.007	66.389
54.007	67.893
55.001	60.054
56.001	64.458
57.009	70.429
58.004	61.702
59.007	69.285
60.000	60.518
60.945	69.834
61.998	61.817
63.030	64.238
64.003	69.983
65.008	69.714
66.002	60.457
67.001	65.759
68.002	65.828
69.005	67.491
70.008	69.883
71.003	60.195
72.002	64.658
73.003	65.228
74.020	64.792
75.004	69.708
76.002	62.481
77.003	66.427
78.000	65.390
79.009	72.342
80.005	61.841
80.946	8.820
