Time [s]	Current [nA]
0.000	45.833
1.031	53.729
2.005	59.029
3.001	51.702
4.005	55.273
4.943	57.777
6.006	50.654
7.010	56.867
8.006	51.300
9.003	55.661
10.000	54.458
11.000	53.795
12.017	54.272
12.994	54.549
14.003	56.090
15.005	55.139
16.004	54.049
17.001	54.257
18.007	57.151
19.001	51.504
20.019	52.745
21.010	55.494
22.009	55.250
23.006	56.063
24.004	50.997
25.008	57.422
26.001	49.038
27.002	53.341
28.001	54.549
29.001	55.594
30.050	53.665
31.000	53.468
32.003	55.827
33.001	55.806
34.007	42.044
35.007	12.611
36.004	19.356
37.007	32.200
38.004	41.019
39.002	47.490
40.007	54.522
41.018	52.220
42.010	62.393
43.010	59.094
44.008	59.313
45.009	58.494
45.946	58.479
47.012	46.806
48.003	42.478
49.001	43.583
50.009	46.523
51.045	40.826
52.011	40.058
53.003	39.411
54.002	42.939
55.002	44.196
56.007	46.011
57.011	47.505
58.004	42.493
59.011	46.470
60.008	45.231
61.008	44.496
62.005	45.933
63.008	47.054
64.005	42.222
65.004	47.142
66.007	45.704
67.009	46.003
68.011	46.802
69.010	41.137
70.014	47.107
71.012	48.192
72.011	45.541
73.008	46.836
74.005	44.028
75.008	51.791
76.005	44.629
77.005	50.295
78.002	50.647
79.008	52.480
79.947	46.108
81.005	47.538
82.010	49.050
82.947	53.250
84.009	45.946
85.013	52.437
86.010	46.836
87.006	50.397
88.006	52.195
89.005	51.847
90.054	49.757
91.001	49.731
92.006	52.333
93.009	53.235
94.007	53.001
95.007	51.395
96.000	48.785
97.006	52.977
98.005	52.547
99.002	51.148
100.005	47.453
