Time [s]	Current [nA]
0.000	43.384
1.005	63.476
2.000	55.170
2.999	60.855
4.011	60.172
5.005	63.841
5.943	60.228
7.005	57.998
8.002	62.180
8.999	61.879
10.039	59.033
11.005	60.656
12.005	62.794
13.007	60.174
14.008	60.533
15.009	60.294
16.006	57.366
17.002	63.247
18.021	59.562
19.007	63.178
20.008	61.333
21.004	60.536
22.000	56.922
23.002	62.070
24.005	61.011
25.005	59.654
26.008	59.017
26.944	58.862
28.019	57.297
29.006	61.696
30.009	59.216
31.008	59.754
32.004	52.906
33.000	45.779
34.001	50.145
35.005	47.752
36.005	47.595
37.005	47.095
38.000	44.920
39.039	46.579
40.009	51.232
41.009	47.495
42.008	48.844
43.009	48.347
43.999	45.349
45.003	49.048
46.002	48.444
47.002	49.095
48.002	48.795
49.024	51.658
50.007	46.689
50.945	49.036
52.009	50.935
53.010	49.545
54.010	50.695
55.007	48.389
56.012	53.030
57.009	52.352
58.007	50.396
59.010	51.441
60.036	50.580
61.007	50.973
62.010	55.328
63.010	52.095
64.007	51.549
65.007	52.447
66.003	49.393
67.003	55.094
68.034	53.438
69.010	56.142
70.010	53.895
71.007	55.962
72.004	51.549
73.010	57.251
74.007	56.564
75.001	50.800
76.008	61.127
77.001	53.167
78.013	57.405
79.005	50.096
80.008	54.730
81.004	55.517
82.008	55.771
83.006	59.413
84.008	58.278
85.008	52.747
86.009	57.337
87.007	58.611
88.011	59.556
89.025	58.771
90.007	53.864
90.999	18.043
