Time [s]	Current [nA]
0.000	20.705
1.029	59.275
1.999	57.211
2.999	62.994
3.999	62.594
4.999	62.994
6.002	66.161
7.004	65.762
8.002	56.908
9.000	62.619
9.998	62.318
11.002	64.635
12.032	63.198
13.000	62.184
14.000	64.094
14.943	66.377
16.000	59.369
17.003	64.799
18.006	67.590
19.000	57.741
20.000	62.294
21.000	61.594
22.025	62.043
22.999	65.907
24.000	60.533
24.999	64.258
25.998	62.619
26.999	62.232
28.003	65.531
29.011	65.966
30.002	58.924
30.944	67.191
32.003	60.617
33.024	63.951
34.006	68.527
35.001	59.291
36.001	63.057
37.000	62.756
38.002	64.365
38.998	67.764
40.006	67.850
41.028	63.986
42.006	59.605
43.002	65.656
43.998	65.455
45.010	69.133
46.008	61.517
47.007	65.759
48.004	64.186
49.006	65.063
49.999	61.827
51.024	64.384
52.007	68.355
53.003	65.957
54.000	64.286
54.998	64.322
56.007	67.950
57.004	61.779
58.004	66.493
59.006	65.662
60.004	64.723
61.015	66.363
62.032	64.104
63.005	61.762
64.007	26.245
64.945	25.371
66.002	42.041
67.008	55.561
68.002	56.835
69.006	63.639
70.006	64.394
71.002	65.857
72.047	64.108
73.002	64.287
74.001	70.163
75.004	66.693
76.002	64.888
77.002	64.694
78.003	60.933
79.006	66.195
80.170	40.975
