Time [s]	Current [nA]
0.000	3.656
0.946	53.800
2.009	54.181
2.998	57.426
4.007	55.792
5.005	57.366
6.002	59.974
6.947	50.683
8.037	57.976
9.013	59.933
10.011	58.912
11.006	52.457
12.007	58.835
13.001	55.326
14.008	57.988
15.005	58.328
16.005	57.594
17.005	54.695
18.037	56.874
19.007	61.025
20.013	57.052
21.013	56.394
22.013	56.394
23.004	54.182
24.007	59.017
25.014	58.046
26.014	57.794
27.013	57.752
28.021	52.772
29.018	58.871
29.948	58.919
31.013	59.055
32.012	56.851
33.012	56.994
33.997	54.715
35.008	58.806
36.006	59.413
37.008	57.978
38.009	56.638
39.045	55.593
40.010	54.606
41.008	59.613
42.013	56.611
43.014	56.038
44.013	56.151
45.011	53.455
46.014	59.117
47.027	55.671
48.014	57.846
49.014	56.294
49.948	53.849
51.006	55.098
52.010	59.157
53.010	52.295
54.010	56.694
55.007	57.223
56.004	54.759
57.008	58.361
57.949	55.361
59.014	59.243
60.011	57.066
61.010	56.651
62.012	53.887
63.005	59.108
64.014	58.369
65.011	57.625
66.014	57.322
67.003	53.584
68.038	56.033
69.011	60.528
70.014	57.023
71.014	57.494
72.013	57.151
73.014	58.036
74.004	53.227
75.008	58.419
76.012	58.162
77.011	57.652
77.950	56.970
79.027	52.734
80.016	54.696
81.015	17.716
82.012	25.273
83.005	31.820
84.007	45.205
85.012	51.987
86.007	47.432
86.950	60.545
88.007	56.286
89.045	57.123
90.016	62.198
91.003	0.709
