Time [s]	Current [nA]
0.000	39.956
0.998	51.197
2.001	52.039
3.004	52.238
3.942	49.675
5.006	54.839
6.001	47.834
7.001	52.895
7.999	53.702
9.001	55.284
10.005	56.269
10.997	49.491
11.997	54.195
12.997	53.995
14.001	56.369
15.022	54.308
16.001	52.702
17.000	54.349
17.999	53.648
19.002	54.431
20.001	56.751
21.005	58.958
22.001	51.400
23.000	56.151
23.998	56.908
25.031	55.518
26.002	61.271
27.006	61.050
27.998	53.825
29.001	58.219
29.943	61.990
31.002	58.540
32.006	63.141
33.020	59.659
34.005	54.715
35.001	59.432
35.999	60.576
37.006	62.556
38.002	56.621
39.001	61.555
40.006	59.994
41.001	60.295
42.006	62.083
43.009	56.126
44.005	62.042
45.005	61.794
45.944	58.310
47.003	62.128
47.944	60.568
49.003	59.484
50.005	61.571
51.001	60.436
52.006	60.094
53.006	64.194
53.944	58.523
54.998	60.051
56.000	62.232
57.003	62.506
58.007	62.046
59.007	64.594
60.003	58.629
61.003	63.894
62.005	60.772
63.004	61.555
64.013	64.909
65.013	56.050
66.002	65.615
67.006	63.539
68.004	62.018
69.002	62.519
70.007	65.765
70.998	58.924
72.005	61.364
73.002	62.180
74.001	62.556
75.031	62.384
76.003	60.899
77.004	64.629
78.008	62.842
79.006	62.318
79.946	59.675
81.007	66.157
82.003	58.629
83.016	63.863
84.007	64.978
84.998	6.861
