Time [s]	Current [nA]
0.000	43.257
0.996	48.991
1.939	59.697
3.001	54.044
4.030	57.137
5.002	51.797
5.940	59.269
6.999	53.725
8.001	56.382
9.005	39.837
10.000	17.988
10.940	24.998
12.000	39.902
13.000	46.795
13.994	47.078
15.045	58.280
16.002	54.644
17.005	58.319
18.005	57.294
19.002	57.467
19.998	53.509
21.005	60.173
22.002	58.269
22.997	52.759
23.997	57.694
25.022	57.123
26.002	62.545
26.998	53.810
28.003	56.412
28.998	57.381
29.998	56.894
31.001	58.618
31.996	53.462
33.001	56.014
34.002	57.237
35.002	57.352
36.002	57.294
36.999	59.372
37.941	57.107
39.002	54.471
39.998	56.721
40.941	59.803
41.992	56.227
43.006	58.475
44.016	55.341
45.003	51.261
45.999	55.572
46.999	54.795
48.002	57.322
48.998	51.802
50.003	54.223
50.941	56.604
51.941	53.495
52.999	53.303
54.040	54.077
54.997	54.644
56.004	55.660
56.999	55.472
57.999	54.695
59.002	56.824
59.997	51.251
61.005	56.046
62.004	55.250
63.001	54.458
64.012	57.759
65.008	49.945
66.002	57.841
67.007	55.019
68.007	55.194
69.008	54.540
69.997	51.562
71.000	56.226
72.008	55.451
73.003	55.070
74.002	55.550
75.042	52.930
76.005	53.993
77.002	57.567
78.004	54.685
79.003	54.349
80.004	53.741
80.998	50.699
82.001	55.229
83.006	54.223
84.008	54.585
85.003	54.768
86.002	55.005
86.999	51.951
87.943	55.503
89.005	57.245
90.005	55.294
91.005	54.994
91.961	22.069
