Time [s]	Current [nA]
0.000	12.585
0.992	25.501
1.988	34.234
2.989	47.148
3.991	53.288
4.987	50.999
5.989	59.235
6.983	60.457
7.986	63.702
9.020	59.859
9.988	58.775
10.992	60.651
11.993	61.233
12.989	60.636
13.993	62.743
14.989	57.524
15.993	60.811
16.981	61.128
17.990	58.369
19.013	58.841
19.988	57.122
20.989	60.533
21.987	59.713
22.989	59.375
23.985	60.837
24.992	64.045
25.990	57.166
27.003	58.731
27.994	61.548
28.990	59.833
29.985	61.602
30.993	61.998
31.990	55.461
32.990	61.194
33.990	58.194
34.993	58.219
35.986	55.740
36.990	61.647
38.015	58.141
38.994	61.894
39.932	57.350
40.985	61.247
41.993	63.585
42.990	57.166
43.985	61.501
44.992	58.683
45.991	59.513
46.995	61.249
48.016	52.688
48.991	60.609
49.992	57.736
50.990	58.311
51.988	60.916
52.994	63.910
53.990	58.127
54.987	60.977
55.988	59.394
56.994	58.443
58.003	61.936
59.008	59.795
59.993	56.441
60.993	60.794
61.985	60.175
62.987	57.080
63.995	59.716
64.992	56.564
65.992	60.855
66.989	59.071
67.993	58.659
69.018	58.043
69.933	61.305
70.986	57.734
71.996	59.202
72.994	58.010
73.993	58.653
74.995	62.768
75.993	55.461
77.001	59.617
77.990	62.178
78.991	61.832
79.989	59.713
80.996	62.059
81.993	54.859
82.994	58.835
83.985	59.530
84.992	58.286
85.988	11.557
