Time [s]	Current [nA]
0.000	26.870
0.996	50.999
1.993	61.378
2.999	57.549
3.994	56.979
4.998	57.265
5.991	56.043
7.024	58.465
8.000	63.928
9.000	60.294
10.000	60.694
10.995	58.587
11.990	55.271
12.993	61.808
13.999	60.034
14.994	58.085
15.995	58.494
17.012	60.761
18.005	52.160
18.995	60.398
19.998	58.219
21.000	58.078
21.995	60.195
22.934	58.567
23.993	57.879
25.000	58.882
26.000	58.353
26.995	57.683
28.025	56.402
28.992	54.907
29.989	59.673
31.001	58.492
31.995	57.640
32.994	57.752
33.997	60.413
34.997	56.194
36.017	57.894
37.000	58.895
37.995	58.487
38.995	59.194
39.935	59.781
40.935	59.494
42.000	55.206
42.996	57.223
43.996	58.594
44.989	56.288
45.995	61.785
47.006	58.056
48.001	60.195
48.998	58.470
49.998	57.994
50.990	53.422
51.998	58.030
53.000	59.575
53.998	59.413
54.994	58.829
56.000	59.596
57.024	52.631
57.995	61.271
59.001	58.046
59.996	57.381
60.997	55.639
61.993	52.806
62.991	57.710
63.997	55.959
64.995	55.105
65.996	56.394
67.000	53.282
68.008	59.121
69.001	30.712
70.004	13.060
71.003	21.820
72.001	32.963
72.998	39.715
74.001	37.384
75.001	36.196
76.001	41.237
76.999	43.883
78.018	43.372
78.994	43.951
79.937	46.337
81.003	45.774
82.002	44.840
83.003	44.951
84.000	41.821
84.991	45.101
86.020	44.937
87.003	47.401
88.003	44.396
88.999	44.775
89.994	42.508
90.995	46.848
92.002	45.874
92.998	45.779
93.990	29.029
