Time [s]	Current [nA]
0.000	32.323
1.063	62.835
2.056	55.986
3.000	68.425
4.000	58.494
5.059	59.351
6.058	61.555
7.057	60.454
8.061	63.141
9.082	59.935
10.062	61.831
11.057	54.366
12.054	60.676
13.057	61.609
14.000	60.227
15.064	65.469
16.057	55.886
17.054	60.877
18.054	60.594
19.063	59.954
20.080	58.401
21.056	58.498
22.063	60.272
23.060	59.071
24.059	58.653
25.058	61.817
26.064	62.419
27.057	54.979
28.055	60.315
29.057	59.475
30.084	59.877
31.054	66.282
32.063	63.324
33.057	54.824
34.057	60.794
35.058	60.594
36.057	62.656
37.067	63.162
38.070	60.911
39.056	54.356
40.067	64.682
41.066	58.453
42.058	56.043
43.065	61.364
44.058	51.959
45.058	57.051
46.057	56.951
47.063	61.028
48.068	62.979
49.076	61.204
50.069	62.129
51.057	55.359
52.064	64.840
53.059	57.984
54.064	63.974
55.058	55.684
56.058	58.194
57.058	58.894
58.062	61.548
59.092	60.285
60.058	57.344
61.057	61.856
62.057	60.494
63.058	59.435
64.060	62.968
65.065	63.838
66.062	55.361
67.061	60.454
68.061	60.494
69.075	60.053
70.078	60.213
71.057	58.319
72.064	57.690
73.062	58.812
74.062	58.194
75.063	60.794
76.066	60.811
77.062	53.408
78.059	60.375
79.058	59.353
80.087	58.109
81.065	63.797
82.062	55.661
83.057	59.894
84.056	0.500
