Time [s]	Current [nA]
0.000	43.878
0.943	55.668
1.943	62.294
2.997	59.292
4.002	60.491
4.943	59.293
5.944	59.094
7.000	56.812
8.001	60.533
9.003	59.575
10.007	57.464
11.005	59.914
12.021	59.049
13.002	59.423
14.005	63.603
15.010	61.548
16.004	58.948
17.003	59.854
17.997	57.942
18.944	64.830
20.020	56.035
21.010	59.388
22.005	57.783
23.003	57.609
24.000	55.160
25.006	60.491
26.006	59.694
27.003	57.567
28.004	58.136
29.001	52.954
30.036	55.840
31.011	60.609
32.006	59.894
32.945	56.224
34.003	61.620
35.001	55.906
36.002	61.094
37.007	58.701
38.007	56.394
39.004	57.467
39.999	54.366
41.048	63.101
42.005	56.839
43.011	58.344
44.003	58.059
45.003	58.894
46.000	55.416
47.004	59.855
48.007	58.419
49.007	58.994
50.007	57.994
51.023	60.821
52.006	54.623
53.005	61.555
54.010	60.591
55.011	58.894
56.011	58.794
57.003	58.059
57.998	63.109
59.010	59.085
60.007	58.470
61.008	57.337
62.018	56.925
63.002	56.600
64.006	60.950
65.003	59.172
66.006	55.883
67.006	57.494
68.009	49.247
69.007	41.679
70.031	44.429
71.011	46.832
72.007	42.466
72.946	20.552
74.012	7.035
75.001	12.941
76.004	22.054
77.003	29.426
78.005	36.823
79.007	41.513
80.042	45.213
80.947	47.509
82.009	43.593
83.004	46.829
84.001	48.240
85.005	48.800
86.011	48.353
87.005	43.356
88.002	47.137
89.004	47.899
90.016	48.414
91.022	49.399
92.004	48.977
93.001	19.958
