Time [s]	Current [nA]
0.000	28.483
1.005	57.308
2.003	56.808
3.005	60.373
4.003	61.116
5.009	59.696
5.945	63.882
7.003	57.745
8.008	61.088
9.003	54.668
10.003	54.595
11.000	45.532
12.008	46.523
12.945	44.606
14.018	46.035
15.007	41.291
16.002	45.021
16.998	44.373
17.999	45.750
19.006	47.463
20.001	43.614
20.996	47.231
21.999	46.855
23.000	48.946
24.038	45.468
25.001	43.090
26.004	47.700
26.946	12.313
27.946	10.599
29.006	19.149
30.000	28.569
30.946	39.531
32.001	37.911
32.998	47.638
33.999	52.842
35.038	49.995
36.004	50.823
37.003	51.246
37.946	53.547
39.002	49.143
39.946	56.138
40.946	48.995
41.946	51.395
42.946	50.895
43.946	54.195
45.033	49.443
45.949	60.474
47.009	52.353
48.002	49.038
48.946	57.198
50.003	51.650
50.946	59.909
51.946	49.995
53.001	51.748
53.946	59.677
55.006	51.127
55.947	58.079
57.007	53.014
58.002	51.754
59.004	55.483
60.003	54.949
61.002	56.451
62.004	57.579
63.015	60.429
64.031	56.490
65.009	53.628
66.007	58.110
67.001	59.250
68.009	60.708
69.005	54.613
70.008	56.525
71.005	55.661
72.006	55.938
73.008	58.178
74.025	50.142
75.012	58.716
76.009	59.172
77.008	58.553
78.008	56.694
79.003	53.261
80.007	58.162
81.004	58.670
82.006	58.777
83.003	59.573
84.018	61.176
85.014	53.361
86.007	61.323
87.007	60.994
88.000	58.302
88.999	58.553
90.010	60.924
91.007	54.057
92.017	58.014
93.008	58.218
93.948	55.845
95.041	58.785
96.002	20.185
