Time [s]	Current [nA]
0.000	27.533
0.998	45.286
2.000	54.585
2.995	47.533
3.995	51.695
5.002	51.585
6.017	52.310
7.001	57.413
7.939	54.152
9.001	49.148
10.001	53.295
11.001	53.595
12.000	55.350
12.992	49.793
14.019	57.735
15.001	50.759
16.001	56.294
17.001	54.695
18.004	56.824
18.996	52.011
20.001	57.407
21.001	56.194
22.001	56.094
23.000	56.651
24.020	57.249
24.939	54.946
25.999	52.969
26.995	58.026
27.996	57.936
29.002	56.853
29.940	50.635
31.001	59.184
32.004	56.824
33.004	56.794
33.994	54.439
35.024	55.874
36.005	62.175
37.004	57.151
38.001	56.664
39.005	57.166
39.995	55.247
40.996	61.732
42.002	63.016
43.001	59.854
44.005	57.763
45.038	56.583
46.003	55.538
46.999	62.243
48.006	61.265
49.006	60.494
50.006	58.994
50.997	57.714
51.996	62.356
53.004	60.014
54.001	59.773
55.006	61.548
56.006	60.994
57.003	57.065
58.002	61.555
59.005	59.017
60.006	58.735
61.006	58.394
61.999	56.389
63.000	60.733
64.026	57.499
65.005	60.566
66.007	59.834
67.005	60.214
67.999	56.131
68.997	61.517
70.006	60.549
71.006	59.594
71.941	58.069
72.941	64.294
74.028	58.228
75.005	62.942
75.999	55.986
77.000	62.531
78.000	61.694
79.001	63.330
80.004	65.597
80.996	55.539
82.000	61.448
83.000	62.494
84.003	63.104
85.040	58.585
86.000	62.910
86.995	23.113
