Time [s]	Current [nA]
0.000	14.739
1.002	53.488
1.999	59.372
3.002	60.512
4.003	61.832
5.051	59.020
6.001	56.731
7.002	58.536
8.002	60.194
9.001	60.655
10.004	62.207
11.007	61.908
12.000	54.778
13.000	58.994
14.000	57.794
15.002	62.032
16.040	57.509
17.001	57.747
18.003	59.375
19.002	59.153
20.010	62.990
21.000	54.742
22.000	54.895
23.001	58.336
24.000	47.443
25.005	12.748
26.038	19.456
27.003	33.883
28.008	43.876
29.001	42.795
30.001	49.195
31.002	57.637
32.005	62.706
33.009	63.639
34.003	54.522
35.000	61.278
36.015	67.153
37.033	60.505
38.006	57.856
39.008	62.070
40.002	53.918
41.003	58.635
42.008	55.218
43.005	40.116
44.008	44.861
45.030	42.503
46.005	39.176
46.949	44.381
48.002	39.027
49.009	42.300
50.006	38.512
51.005	41.237
51.998	40.882
53.002	42.526
54.009	45.676
55.039	40.229
56.007	46.896
57.012	43.578
58.013	42.353
59.008	41.704
60.002	40.338
61.006	44.219
62.002	42.164
63.001	43.639
64.006	45.369
65.010	49.546
66.042	47.476
66.948	42.269
68.013	47.413
69.009	46.381
70.005	44.473
71.010	47.259
72.006	43.570
73.006	47.795
74.004	45.286
75.003	47.042
76.043	49.658
77.005	51.034
78.007	52.590
79.010	50.942
80.000	48.480
81.003	49.746
82.010	52.428
83.007	47.137
84.009	52.390
85.006	52.452
86.014	51.832
87.019	53.030
88.007	51.513
89.007	55.194
90.008	55.139
91.007	53.548
91.999	53.624
93.010	56.275
94.007	49.544
95.022	53.249
96.015	54.577
97.015	53.795
97.949	51.815
99.062	30.096
