Time [s]	Current [nA]
0.000	4.882
1.000	51.595
2.000	58.094
3.056	55.582
4.060	57.763
5.063	57.479
6.063	56.994
7.057	55.930
8.001	61.858
9.001	58.894
10.061	55.938
11.062	59.435
12.059	56.363
13.056	53.555
14.062	24.451
15.062	19.217
16.062	29.597
17.057	37.886
18.063	50.691
19.084	43.580
20.056	59.150
21.063	57.392
22.058	57.482
23.060	57.579
24.057	55.461
25.061	58.818
26.061	58.794
27.057	57.725
28.058	57.237
29.092	56.861
30.001	56.430
31.058	55.907
32.001	56.728
33.058	59.975
34.062	56.668
35.064	60.533
36.002	57.564
37.062	55.277
38.062	57.594
39.060	58.411
40.092	56.002
41.061	57.373
42.002	63.224
43.063	54.189
44.054	57.209
45.003	60.226
46.064	56.451
47.061	53.455
48.073	56.516
49.063	56.459
50.058	57.884
51.064	56.058
52.058	54.220
53.065	58.882
54.063	58.211
55.063	56.751
56.058	59.391
57.066	59.220
58.062	53.007
59.084	56.159
60.068	60.258
61.068	58.294
62.064	56.822
63.062	53.902
64.064	59.176
65.062	50.647
66.061	55.550
67.059	55.906
68.058	57.452
69.107	55.285
70.059	54.406
71.061	57.380
72.058	58.369
73.003	59.571
74.062	54.291
75.065	60.273
76.059	53.214
77.061	56.182
78.061	57.394
79.062	59.834
80.089	55.885
81.058	55.516
82.059	56.238
83.054	57.180
84.065	60.627
85.059	52.663
86.066	58.584
87.062	51.702
88.061	56.050
89.055	56.534
90.095	54.321
91.057	8.731
