Time [s]	Current [nA]
0.000	4.280
1.001	57.437
2.006	58.502
3.006	60.094
4.003	57.066
4.999	61.841
6.007	59.478
7.008	58.835
8.007	58.953
9.036	59.664
10.004	57.019
11.008	62.942
12.006	61.317
13.008	60.872
14.004	61.640
15.001	55.962
16.009	64.442
17.030	60.719
18.005	63.583
18.996	54.687
19.999	60.712
20.991	63.905
22.005	62.913
23.000	53.763
23.999	58.953
25.004	59.795
26.009	61.647
27.000	55.393
27.943	61.076
29.005	54.514
30.006	56.038
31.002	56.721
32.009	59.378
33.005	52.806
34.002	57.667
34.997	55.572
35.998	55.494
37.006	59.518
38.028	50.093
38.943	63.928
40.000	55.529
41.001	56.937
42.009	56.244
42.999	53.328
44.001	58.876
45.010	57.336
46.007	56.765
47.001	50.096
48.019	58.147
49.023	58.759
50.006	54.827
51.008	55.483
52.001	57.295
53.002	56.937
54.005	59.316
55.002	53.656
56.004	56.738
57.003	54.949
57.998	55.673
59.032	53.960
60.006	60.774
61.003	53.054
62.002	58.453
63.002	56.394
64.000	55.806
65.006	58.344
65.945	56.498
67.026	53.094
68.011	58.065
69.013	56.681
70.009	56.219
71.006	53.254
72.010	59.257
73.000	52.823
74.001	56.038
75.003	54.685
76.003	59.454
77.001	53.902
78.019	62.175
79.007	52.728
80.007	55.994
81.007	55.294
82.010	58.319
83.007	51.850
84.006	56.851
84.949	59.167
86.000	53.614
87.007	59.180
88.015	5.753
