Time [s]	Current [nA]
0.000	51.246
1.001	57.137
2.028	54.620
3.000	55.241
4.005	56.711
5.007	56.038
6.005	57.109
7.000	58.286
8.006	59.835
9.006	52.795
10.005	58.052
11.000	58.085
12.036	56.462
13.004	60.118
14.000	52.906
15.007	57.450
16.002	55.673
17.001	55.550
18.000	57.752
19.006	57.450
20.007	52.542
21.006	56.351
22.006	56.694
23.015	56.684
24.005	59.691
25.000	53.964
26.007	56.555
27.006	54.949
28.006	54.095
29.006	57.194
29.999	51.858
31.036	59.493
32.006	51.954
33.002	56.119
34.003	55.839
35.007	58.618
36.003	52.505
37.006	56.624
38.006	54.395
39.007	54.740
40.007	51.895
41.038	54.699
42.011	58.576
43.010	56.951
44.007	56.263
45.005	56.107
46.001	53.964
47.002	60.334
48.010	57.137
49.007	55.361
50.007	54.295
51.002	51.050
52.039	53.129
53.009	60.303
54.011	56.980
55.011	56.551
56.011	57.194
57.004	54.476
58.007	58.120
59.011	56.269
60.012	54.940
61.011	54.349
62.031	56.563
63.006	51.174
64.011	57.706
65.008	56.320
66.005	50.647
67.013	56.542
68.006	58.705
69.003	52.452
70.010	54.612
71.008	53.702
72.011	54.132
73.021	54.351
74.011	58.176
75.000	51.259
76.008	55.506
77.008	54.595
78.005	55.260
79.003	56.808
80.008	57.507
81.021	54.486
82.008	49.843
83.008	54.695
84.008	54.795
85.015	57.052
86.004	51.966
87.009	55.716
88.008	54.849
89.005	54.959
90.000	0.402
