Time [s]	Current [nA]
0.000	26.126
0.998	56.107
2.003	54.920
2.994	55.393
4.000	53.474
5.004	57.522
6.004	51.395
7.010	55.859
8.003	56.691
9.000	54.358
9.998	54.804
11.008	57.123
12.004	52.605
13.001	56.063
13.996	56.376
14.996	54.994
16.006	57.675
17.048	55.369
18.006	53.022
19.004	58.311
20.002	56.808
21.002	54.995
21.998	53.208
23.001	57.621
24.003	55.384
24.998	54.065
26.002	52.936
27.021	56.717
28.003	49.995
28.944	57.911
30.000	52.836
31.003	54.930
32.000	55.862
33.006	58.841
34.002	52.505
34.944	54.241
36.001	57.949
36.996	55.673
38.033	54.189
39.000	55.424
40.002	58.278
41.004	57.379
41.999	56.075
43.004	55.119
44.006	59.076
45.003	52.906
46.016	55.276
47.005	56.516
48.004	54.249
48.996	54.833
50.007	57.858
51.003	52.404
52.002	57.051
52.999	54.859
54.004	55.019
55.007	59.076
56.002	52.960
57.019	55.157
58.011	57.857
59.007	57.223
60.001	51.303
61.004	57.821
62.006	59.375
63.001	51.653
64.000	57.151
65.000	55.494
66.005	57.763
67.032	56.567
68.008	60.342
69.001	51.757
70.001	56.294
71.003	55.583
72.006	57.621
73.007	59.834
74.006	52.547
75.001	56.175
75.996	55.125
76.946	61.362
78.007	54.660
79.008	59.535
80.002	51.906
81.004	54.985
81.996	56.244
83.008	57.603
84.000	60.075
85.002	49.696
86.005	54.785
87.012	60.868
88.022	49.797
89.005	57.980
89.999	23.639
