Time [s]	Current [nA]
0.000	4.934
0.998	54.504
1.998	57.194
3.002	59.257
4.004	61.172
5.000	51.902
6.001	56.894
7.000	54.349
8.002	44.806
9.025	43.300
10.004	47.186
11.000	42.968
11.999	44.840
13.001	45.904
14.002	46.549
15.006	45.858
16.000	39.533
17.001	44.151
18.006	48.552
19.016	40.689
20.010	44.664
21.006	48.389
22.004	40.978
23.006	45.005
24.005	45.741
25.010	48.700
26.007	44.830
27.004	49.042
28.001	47.538
28.998	46.535
30.022	46.773
31.010	49.489
32.003	44.910
33.002	47.943
34.002	47.495
35.001	47.343
36.007	52.731
37.004	46.435
38.016	49.205
39.004	51.817
40.004	49.895
41.004	48.795
42.007	52.138
43.002	46.528
43.998	48.790
45.005	49.747
46.007	51.643
47.007	55.194
48.004	49.343
49.027	52.487
50.014	13.575
51.011	14.041
52.007	25.600
53.004	31.993
54.007	43.864
55.003	42.968
56.000	50.095
57.002	54.785
58.003	58.236
59.043	55.283
60.002	54.009
61.007	56.810
62.007	55.494
63.004	56.063
64.007	58.219
65.003	51.802
66.004	56.494
67.007	55.528
68.007	55.194
69.012	57.805
70.027	55.856
71.002	52.610
72.012	55.440
73.010	55.906
73.945	53.257
75.003	56.233
75.946	58.381
77.000	59.956
78.000	52.395
79.008	63.486
80.049	57.247
81.006	53.809
82.008	60.373
83.003	52.759
84.004	57.836
85.000	58.528
86.005	60.153
87.010	62.780
88.008	53.602
89.004	59.532
90.006	57.679
91.006	58.394
92.001	61.803
93.008	62.159
94.004	53.709
95.002	57.910
96.011	62.692
97.005	55.829
98.009	63.141
99.010	0.999
