Time [s]	Current [nA]
0.000	16.039
0.971	47.678
1.963	47.475
2.966	54.730
3.965	55.550
4.965	56.894
5.967	51.643
6.968	55.439
7.967	55.850
8.967	55.594
9.967	59.094
11.010	54.453
11.969	55.677
12.967	56.808
13.963	55.115
14.965	55.184
15.964	57.109
16.966	51.991
17.967	56.738
18.966	56.251
19.964	56.608
21.018	61.379
21.963	53.328
22.965	52.689
23.968	56.924
24.965	56.363
25.966	55.994
26.970	58.062
27.966	53.408
28.975	56.090
29.911	60.785
30.965	53.410
31.965	56.394
32.968	58.519
33.967	54.049
34.967	57.894
35.966	57.209
36.966	57.994
37.966	58.694
38.973	58.485
39.983	57.024
40.969	51.618
41.967	54.303
42.966	55.350
43.966	58.494
44.976	59.103
45.970	52.764
46.966	57.524
47.964	58.010
48.967	58.618
50.006	57.357
50.964	55.527
51.967	55.927
52.965	53.602
53.968	53.534
54.966	56.407
55.974	56.598
56.971	49.644
57.967	54.011
58.970	53.833
59.912	58.699
60.975	51.265
61.974	56.151
62.967	49.441
63.970	54.431
64.970	53.595
65.973	56.481
66.974	56.138
67.967	48.535
68.967	54.795
69.970	55.129
71.004	51.349
71.973	57.579
72.970	50.747
73.975	53.129
74.973	53.301
75.974	52.695
76.974	54.395
77.967	50.448
78.998	59.063
79.976	49.075
80.975	54.449
81.975	54.495
82.977	57.180
83.970	51.858
84.974	54.975
85.975	54.195
86.975	54.295
87.973	56.708
88.971	50.596
89.981	54.252
91.020	38.783
