Time [s]	Current [nA]
0.000	40.855
0.998	51.398
1.994	57.424
3.012	53.924
3.999	56.732
5.001	54.240
6.000	54.949
7.002	57.679
7.941	55.905
8.996	52.222
10.000	54.377
10.990	55.651
12.001	57.264
12.940	55.373
14.009	52.006
15.003	56.591
15.994	56.099
16.941	57.861
17.941	53.295
18.999	54.248
20.002	56.126
21.000	54.604
21.941	52.705
23.002	58.147
23.941	53.456
24.941	55.294
26.001	51.081
26.941	52.761
28.002	55.979
28.941	56.224
29.941	55.894
30.998	51.650
31.941	51.957
32.941	53.295
34.002	57.958
35.025	54.985
36.003	52.347
37.002	56.151
37.996	53.818
39.002	53.673
40.004	55.583
41.001	50.847
41.997	54.914
43.003	53.374
43.941	53.193
44.941	54.695
46.005	59.637
47.001	52.003
48.002	54.940
48.997	54.768
49.997	55.294
51.005	58.030
51.998	51.656
53.002	55.871
53.997	55.371
55.004	54.612
56.007	54.985
57.005	58.211
58.001	52.103
59.004	56.126
59.943	53.669
61.001	40.261
62.007	15.008
63.001	23.137
64.020	34.933
64.942	42.837
66.009	49.057
67.005	52.605
68.001	54.211
69.005	60.751
70.000	50.950
70.999	55.150
72.000	56.338
73.002	58.377
74.030	55.734
75.010	59.340
75.999	50.652
77.002	55.029
77.999	55.862
79.001	58.078
80.005	59.357
81.003	50.195
81.999	55.717
83.000	55.739
84.014	55.221
85.023	56.542
86.001	54.902
87.005	55.971
88.005	57.094
88.998	56.288
90.007	58.369
90.998	54.081
92.002	56.966
92.997	21.606
