Time [s]	Current [nA]
0.000	47.000
1.000	52.400
2.000	48.600
3.057	49.385
4.000	53.765
5.000	51.000
5.999	49.049
6.999	51.100
7.999	52.600
8.999	51.000
9.999	50.300
10.999	50.100
11.999	52.100
12.999	48.200
13.999	51.700
14.999	50.700
15.999	50.400
17.001	51.896
17.999	47.094
18.999	23.700
19.999	27.400
20.999	39.700
21.999	46.000
23.059	50.094
23.998	51.118
24.998	47.100
25.998	49.500
26.998	50.700
27.998	50.200
28.998	53.100
29.998	51.700
30.998	46.500
31.998	50.400
32.998	54.800
33.998	48.100
34.998	52.400
35.998	46.600
36.998	51.700
37.998	50.600
39.055	51.939
40.061	52.883
40.997	51.603
41.997	46.900
42.997	50.200
43.997	50.400
44.997	53.000
46.056	49.481
46.997	54.516
47.997	47.400
48.997	50.400
49.997	50.400
50.997	52.800
51.997	52.900
52.997	47.300
53.997	50.400
54.997	50.200
55.997	51.700
56.997	51.400
57.996	51.451
58.996	46.800
59.996	54.700
60.996	50.100
61.996	48.000
62.996	52.200
63.996	45.800
64.996	49.500
66.055	50.897
66.996	49.522
67.996	51.200
68.996	52.700
69.996	46.700
70.996	50.400
71.996	50.900
72.996	52.400
73.996	52.800
75.057	48.351
75.995	48.721
76.995	50.100
77.995	49.700
78.995	52.500
80.054	49.386
80.995	49.203
82.055	51.887
82.995	48.723
83.995	51.300
84.995	52.100
85.995	45.500
86.995	50.200
87.995	49.200
89.054	51.369
89.995	49.416
90.995	51.500
91.995	46.300
92.994	49.750
93.994	49.800
94.994	52.100
95.994	52.000
97.064	47.383
97.994	49.570
98.994	49.300
100.045	33.968
