Time [s]	Current [nA]
0.000	39.596
1.000	52.995
2.061	51.079
3.000	53.136
3.999	54.549
5.055	50.895
6.000	56.396
7.000	55.194
8.000	49.995
9.058	50.657
10.000	56.895
11.000	52.695
12.000	53.695
13.000	51.095
14.000	54.995
15.000	53.895
16.001	52.895
17.001	53.795
18.001	56.094
19.001	51.995
20.001	54.095
21.000	54.249
22.000	52.795
23.000	53.195
24.059	51.931
25.000	54.405
26.001	53.595
27.001	53.195
28.001	53.195
29.001	54.994
30.001	50.495
31.001	54.695
32.001	54.695
33.058	50.042
34.001	56.198
35.001	55.094
36.064	53.102
37.064	49.195
38.002	57.137
39.001	54.149
40.001	52.295
41.001	53.695
42.001	51.195
43.001	54.195
44.001	53.995
45.001	53.595
46.064	52.820
47.002	54.899
48.002	54.395
49.002	54.295
50.002	54.695
51.002	55.394
52.002	55.394
53.002	51.695
54.002	55.095
55.066	51.359
56.060	54.622
57.002	54.135
58.002	56.394
59.002	54.895
60.002	53.695
61.002	53.795
62.002	54.095
63.002	51.595
64.002	55.594
65.002	55.094
66.003	54.095
67.003	54.595
68.003	56.994
69.065	54.326
70.003	51.914
71.003	54.994
72.056	50.992
73.003	56.911
74.002	56.551
75.065	53.855
76.003	52.234
77.003	53.495
78.003	53.795
79.003	29.497
80.081	27.085
81.003	39.801
82.003	49.395
83.003	52.995
84.003	54.395
85.003	51.495
86.062	51.696
87.062	53.295
88.004	55.515
89.004	48.595
90.004	54.495
91.003	54.249
92.003	51.095
93.003	53.895
94.148	42.878
