Time [s]	Current [nA]
0.000	33.330
1.000	59.894
2.000	64.494
3.000	64.993
3.999	63.757
4.999	63.494
6.000	60.394
7.000	65.893
8.000	58.194
9.000	62.494
10.000	62.594
11.000	65.194
12.000	63.494
13.058	60.580
14.000	61.140
15.000	62.294
16.001	62.294
17.001	64.993
18.001	59.094
19.001	62.694
20.001	61.994
21.001	62.294
22.000	63.457
23.000	62.194
24.000	59.594
25.000	62.194
26.001	62.294
27.001	62.994
28.001	59.294
29.066	66.378
30.001	60.529
31.001	61.894
32.001	61.494
33.094	57.176
34.001	65.264
35.001	65.293
36.002	63.294
37.058	59.180
38.002	60.375
39.056	61.853
40.062	65.103
41.001	60.803
42.001	63.294
43.001	62.194
44.001	62.394
45.001	64.993
46.002	59.094
47.002	53.695
48.064	28.528
49.002	37.949
50.002	49.795
51.002	54.195
52.002	51.895
53.002	50.795
54.002	52.995
55.002	53.195
56.003	50.195
57.002	55.650
58.002	53.695
59.002	52.695
60.002	52.395
61.002	49.895
62.002	53.695
63.002	56.794
64.002	53.895
65.002	52.895
66.071	49.714
67.003	54.179
68.003	56.294
69.003	50.195
70.003	52.995
71.003	52.695
72.003	53.995
73.003	56.394
74.002	51.446
75.002	55.694
76.003	55.394
77.003	54.495
78.003	52.495
79.003	57.194
80.003	55.594
81.003	55.394
82.003	55.194
83.003	55.794
84.066	55.686
85.003	55.491
86.011	55.605
87.004	0.403
