Time [s]	Current [nA]
0.000	27.738
0.999	50.825
1.999	53.827
2.998	53.227
3.998	53.127
4.997	53.781
5.996	51.426
6.996	55.428
7.995	53.527
8.995	52.926
10.049	50.357
10.994	58.442
11.993	50.325
12.993	54.127
13.992	54.327
14.992	52.826
15.991	53.327
16.991	55.172
17.990	50.476
18.990	54.227
20.042	50.738
20.989	56.311
21.987	55.684
22.987	49.925
23.986	56.228
24.986	53.227
25.985	52.626
26.985	53.527
27.984	55.728
28.984	50.825
29.983	55.128
31.039	50.640
31.982	56.232
32.982	55.328
34.083	49.843
34.981	55.596
35.980	53.927
36.980	53.127
38.033	50.595
38.979	58.380
40.039	52.618
41.035	48.570
41.976	56.458
43.033	50.782
43.975	57.885
44.975	49.825
45.974	55.428
46.974	54.227
47.973	52.726
48.973	53.227
49.972	54.927
51.033	53.322
51.971	52.265
52.971	53.127
54.030	50.497
54.970	57.156
55.969	51.226
56.968	55.083
57.967	53.927
59.023	50.167
59.966	57.293
60.966	50.525
62.026	57.144
62.965	51.250
63.964	54.427
64.964	53.427
66.019	50.593
67.023	55.749
67.962	54.340
69.018	51.587
69.961	56.762
70.961	53.027
71.960	55.428
73.032	52.216
73.959	51.266
74.958	53.781
75.957	52.426
76.957	52.726
77.957	54.973
78.956	50.476
80.011	50.783
80.955	56.066
81.954	52.826
82.954	55.028
83.953	48.024
84.953	55.428
85.952	53.327
87.010	49.600
87.951	56.032
88.951	55.228
89.950	49.825
91.006	50.546
91.948	55.017
92.948	52.226
93.947	29.415
