Time [s]	Current [nA]
0.000	49.400
1.000	51.100
2.000	47.300
3.087	51.334
4.000	49.398
5.000	49.200
6.000	50.000
7.000	51.100
8.000	47.200
9.000	50.500
10.000	49.200
11.000	49.500
12.000	51.400
13.000	45.600
14.000	51.500
15.000	50.200
15.999	49.249
16.999	49.300
17.999	52.100
18.999	47.800
19.999	50.400
20.999	50.000
21.999	49.700
22.999	51.900
24.014	49.754
24.999	47.919
25.999	50.400
26.999	49.400
27.999	49.500
28.999	52.100
29.999	47.500
30.999	50.600
31.999	50.200
32.998	50.450
33.998	50.200
34.998	51.500
35.998	47.400
37.056	47.543
37.998	51.911
38.998	49.700
40.058	49.245
40.998	50.532
41.998	50.500
42.998	49.500
44.057	46.364
44.998	53.241
45.998	48.000
46.998	46.100
47.998	42.300
48.998	40.900
50.054	38.920
50.997	46.341
51.997	39.900
53.071	43.669
53.997	41.145
54.997	41.600
55.997	41.300
57.054	41.249
57.997	41.888
58.997	42.100
59.997	41.600
60.997	42.600
61.997	45.300
62.997	39.300
63.997	44.100
65.055	41.115
66.054	43.243
66.997	45.811
67.996	45.045
68.996	41.600
69.996	43.800
70.996	44.400
71.996	44.100
73.055	43.060
73.996	42.614
74.996	45.900
75.996	44.900
76.996	44.900
77.996	45.100
79.053	43.614
79.996	45.069
81.053	42.668
81.996	47.296
83.054	42.817
84.007	49.423
84.995	41.700
85.995	48.000
86.995	45.800
88.057	43.314
88.995	49.147
90.059	45.583
90.995	46.368
91.995	46.200
93.057	43.691
93.995	50.107
94.995	47.300
96.056	47.502
96.995	47.284
97.995	44.000
98.995	47.800
100.052	49.007
101.056	50.398
101.995	48.030
102.994	43.644
103.994	48.400
104.994	47.200
106.062	36.985
