Time [s]	Current [nA]
0.000	6.733
0.939	49.546
2.000	52.851
2.938	51.625
3.937	53.427
4.937	52.626
5.936	54.027
6.939	54.663
7.935	49.172
8.934	52.479
9.933	52.726
10.933	52.526
11.932	55.628
12.932	49.625
14.001	53.298
14.931	51.842
15.931	52.305
16.931	54.305
17.930	49.705
18.930	52.605
19.930	52.105
20.930	52.605
21.995	38.689
22.930	23.425
23.930	33.003
24.930	46.205
25.930	50.505
26.929	52.658
27.928	55.105
28.930	53.299
30.001	47.811
30.928	51.246
31.993	52.118
32.988	50.859
33.928	50.856
34.928	52.605
35.928	46.705
36.928	51.105
37.927	51.505
38.927	53.005
39.927	52.505
40.927	47.805
41.927	51.305
42.927	50.705
43.926	50.756
44.926	53.105
45.926	48.505
46.926	51.505
47.925	51.005
48.925	51.205
49.925	52.305
50.925	52.705
51.925	49.205
52.925	51.805
53.925	51.505
54.925	51.305
55.929	54.189
56.925	49.202
57.924	51.405
58.978	48.012
59.924	53.388
60.924	50.505
61.923	49.655
62.923	53.405
63.923	51.505
64.923	50.705
65.923	51.105
66.923	48.505
67.983	49.864
68.922	54.319
69.922	51.205
70.922	51.905
71.922	51.605
72.922	49.305
73.922	53.305
74.922	52.105
75.923	51.554
76.923	51.005
77.921	47.953
78.920	52.057
79.920	51.505
80.920	47.505
81.920	51.505
82.920	51.705
83.920	53.105
84.924	52.894
85.920	47.595
86.920	51.205
87.919	51.705
88.919	53.505
90.016	47.680
90.919	53.826
91.919	51.805
92.919	51.705
93.919	51.605
94.922	53.345
95.972	46.767
96.918	55.291
97.917	51.705
98.917	19.602
