Time [s]	Current [nA]
0.000	42.604
1.000	45.105
2.000	46.305
3.000	45.705
4.000	43.404
4.999	47.905
5.999	46.805
6.998	47.252
8.059	45.716
8.998	47.822
9.998	45.004
10.998	48.605
11.998	48.105
12.998	48.105
13.998	47.505
14.997	49.705
16.056	46.464
16.997	47.614
17.997	48.005
18.997	48.305
19.997	50.805
20.997	50.505
21.997	44.504
22.997	48.605
23.996	48.153
25.057	49.817
25.995	49.259
26.995	46.205
28.057	50.853
28.995	46.487
29.995	49.105
30.995	50.905
31.995	49.805
32.995	46.402
33.995	49.200
35.056	49.859
35.995	46.752
36.995	50.800
37.995	50.800
38.995	45.900
39.995	49.300
40.995	49.200
41.994	49.750
42.994	52.200
43.994	47.200
44.994	51.200
45.994	49.500
46.994	48.800
47.994	51.000
49.057	48.824
49.994	48.346
50.994	49.800
51.994	49.700
52.994	49.400
53.994	47.200
54.994	51.400
55.994	50.700
57.052	46.975
57.994	52.866
58.993	47.147
59.993	51.400
61.077	50.923
61.993	48.472
62.993	49.400
64.055	46.516
64.993	49.893
66.048	48.910
66.993	53.757
67.993	49.400
68.993	49.500
69.993	47.200
71.079	52.578
71.993	48.906
72.993	50.400
73.993	49.700
74.993	49.700
76.058	49.296
76.992	50.642
77.992	50.800
78.992	50.100
79.992	49.900
81.055	39.135
81.992	20.277
82.992	34.200
83.992	42.600
85.053	44.109
86.054	49.950
86.992	50.426
87.992	51.200
88.992	50.500
89.992	49.400
90.992	49.200
91.992	50.800
92.992	46.200
93.991	51.451
94.991	50.100
95.991	50.000
96.991	50.100
97.991	47.100
98.991	51.800
100.052	48.256
100.991	52.929
101.991	49.700
102.991	23.500
