Time [s]	Current [nA]
0.000	18.018
1.000	55.594
2.000	55.494
3.000	53.295
4.000	57.994
5.001	57.294
6.001	56.094
7.001	55.994
8.001	55.894
9.001	53.395
10.001	57.894
11.001	55.894
12.001	55.494
13.000	55.750
14.000	52.595
15.001	57.594
16.001	55.694
17.001	55.894
18.063	51.501
19.001	58.416
20.001	52.995
21.001	57.994
22.001	55.394
23.001	54.895
24.001	55.194
25.002	52.695
26.075	59.174
27.002	54.364
28.002	55.494
29.002	55.294
30.001	55.150
31.001	52.595
32.064	59.354
33.001	54.424
34.001	54.695
35.002	54.495
36.002	51.395
37.002	54.695
38.002	57.594
39.002	55.294
40.002	54.595
41.002	54.795
42.002	52.295
43.002	57.294
44.002	55.494
45.003	54.695
46.003	55.194
47.013	55.836
48.002	51.461
49.002	57.194
50.002	55.594
51.061	51.836
52.002	57.805
53.002	51.095
54.002	56.494
55.003	54.895
56.003	54.695
57.057	52.746
58.003	52.743
59.064	54.377
60.003	53.882
61.003	54.295
62.003	53.695
63.003	54.795
64.003	57.094
65.002	57.252
66.003	49.995
67.003	55.994
68.003	55.194
69.003	55.194
70.064	53.718
71.060	56.320
72.003	52.911
73.003	53.895
74.003	54.495
75.003	51.395
76.004	21.398
77.004	30.797
78.004	42.996
79.004	49.995
80.004	53.495
81.004	57.094
82.004	51.895
83.003	53.748
84.003	54.195
85.003	54.395
86.004	56.594
87.004	49.895
88.004	56.794
89.004	55.294
90.004	53.595
91.004	53.595
92.004	50.795
93.057	14.813
