Time [s]	Current [nA]
0.000	52.209
0.999	52.026
1.999	47.324
2.998	52.126
3.998	54.527
4.997	49.024
5.997	53.627
6.997	52.526
7.996	53.027
8.995	55.128
9.994	50.576
10.994	53.627
11.993	53.026
12.993	52.526
13.992	52.526
14.992	49.525
15.991	54.327
16.991	53.327
17.990	52.126
18.990	52.526
19.989	49.125
20.989	53.427
21.988	53.927
22.988	52.526
23.987	52.226
24.987	52.426
25.986	49.825
26.986	54.127
27.984	53.681
28.984	52.426
30.044	48.941
31.042	54.982
31.982	50.664
33.044	51.578
34.044	46.023
35.042	44.667
36.043	44.478
37.041	45.368
37.979	44.479
38.979	45.323
39.978	43.722
40.978	45.022
41.977	41.021
42.977	46.423
44.034	43.784
44.975	44.124
45.974	44.022
46.974	45.223
47.973	47.224
49.031	44.687
49.972	44.762
51.038	46.884
51.971	43.859
52.971	45.923
53.970	47.824
54.970	44.022
55.969	46.523
56.969	46.223
57.968	47.424
58.968	45.323
59.967	49.225
60.967	47.324
62.028	44.278
62.965	49.972
64.021	44.961
64.964	51.670
65.963	45.223
67.024	46.162
67.962	51.305
68.962	48.024
69.961	45.423
71.059	49.342
71.960	49.969
72.960	49.025
73.959	43.722
75.014	49.930
75.958	49.071
76.958	50.625
77.957	45.623
78.957	49.225
79.955	50.275
80.955	50.725
81.954	51.025
82.954	47.824
83.953	49.425
84.953	49.525
85.952	49.024
86.952	50.625
87.951	51.826
88.951	46.623
89.950	50.525
90.950	50.825
91.949	50.625
92.949	53.527
94.009	50.072
94.948	49.652
95.947	50.225
96.947	49.825
97.945	52.479
98.945	48.924
99.944	51.326
101.062	38.089
