Time [s]	Current [nA]
0.000	3.979
1.000	42.696
2.000	49.695
3.000	50.695
4.000	44.496
5.001	47.695
6.001	53.795
7.001	47.495
8.001	50.795
9.001	49.095
10.001	50.895
11.066	52.577
12.001	48.230
13.001	51.495
14.000	46.242
15.001	49.295
16.001	49.995
17.001	50.495
18.001	50.795
19.001	50.195
20.001	47.195
21.001	51.495
22.001	49.795
23.001	50.295
24.001	53.195
25.002	48.795
26.002	51.995
27.058	48.764
28.059	52.143
29.002	54.820
30.002	54.095
31.001	49.945
32.001	53.595
33.001	52.295
34.001	52.595
35.002	54.795
36.002	49.995
37.002	52.995
38.002	53.395
39.002	52.695
40.002	52.795
41.002	54.994
42.002	51.095
43.002	54.595
44.002	53.795
45.003	53.495
46.003	49.995
47.067	51.781
48.003	56.939
49.002	53.748
50.004	53.488
51.002	49.694
52.063	58.618
53.002	54.840
54.063	51.267
55.003	52.710
56.003	53.895
57.003	55.394
58.003	53.995
59.003	55.294
60.003	49.995
61.003	53.995
62.003	58.994
63.003	51.595
64.061	53.681
65.066	55.273
66.003	53.143
67.003	59.494
68.077	54.464
69.003	54.530
70.003	53.395
71.068	58.492
72.003	54.326
73.003	56.794
74.003	53.795
75.065	60.220
76.004	54.627
77.004	56.294
78.004	55.994
79.004	56.694
80.004	53.795
81.066	54.703
82.004	55.858
83.004	60.594
84.064	53.014
85.003	56.757
86.062	55.571
87.004	54.135
88.004	57.194
89.063	58.162
90.004	53.023
91.004	57.394
92.004	58.194
93.004	52.395
94.004	56.494
95.057	10.835
