Time [s]	Current [nA]
0.000	26.684
1.000	51.805
2.000	49.505
3.058	51.045
4.000	50.961
4.999	52.305
5.999	51.305
6.999	53.405
8.057	51.045
8.999	49.899
9.999	52.305
10.998	51.957
12.056	50.100
12.998	52.341
13.998	54.105
14.997	52.705
15.997	51.505
16.997	51.805
17.997	48.905
18.997	52.505
19.997	52.905
20.997	52.105
21.997	51.405
23.051	48.582
23.997	51.591
25.054	51.045
25.996	50.323
26.996	51.005
27.996	51.105
28.995	53.058
29.995	51.605
30.995	49.005
31.995	51.105
32.995	51.105
33.995	51.105
35.055	50.335
35.994	51.549
36.994	51.205
37.994	50.805
38.994	50.805
39.994	51.205
40.994	53.505
41.994	48.705
42.994	52.205
43.994	51.305
44.994	51.305
45.992	48.654
46.992	53.205
48.053	48.544
48.992	54.745
49.992	51.005
50.992	51.005
51.992	48.705
53.050	50.194
53.992	51.704
54.992	51.205
55.991	51.105
56.991	53.605
58.050	51.374
59.074	50.689
60.057	53.515
60.991	49.684
61.991	51.405
63.054	50.146
63.990	51.715
64.990	51.805
66.052	53.439
66.989	49.098
67.989	49.005
68.989	51.005
69.989	52.705
70.989	51.305
71.989	51.405
72.989	34.503
74.044	22.561
74.992	38.465
75.988	40.767
76.988	49.605
77.988	51.305
79.084	52.834
80.051	47.988
80.987	50.432
81.987	50.205
82.987	50.005
83.987	49.705
84.987	51.805
85.986	48.005
86.986	51.205
87.986	50.905
88.986	50.605
89.986	50.705
90.986	52.505
91.986	47.205
92.986	50.605
93.986	50.005
94.986	50.205
95.985	52.405
97.040	50.147
97.985	48.894
99.036	40.537
