Time [s]	Current [nA]
0.000	10.969
1.000	54.495
2.058	56.233
3.058	58.194
4.058	57.594
5.000	61.034
6.000	54.749
7.000	60.294
8.000	58.594
9.000	58.894
10.000	58.194
11.000	57.794
12.058	56.705
13.000	58.699
14.000	59.094
15.000	57.594
16.001	57.594
17.001	55.394
18.001	59.794
19.001	60.394
20.001	58.194
21.062	54.566
22.001	61.655
23.000	54.949
24.000	59.994
25.000	58.994
26.001	58.194
27.001	57.594
28.058	57.516
29.082	37.594
30.001	26.439
31.001	40.096
32.001	50.095
33.058	53.069
34.001	58.637
35.001	60.294
36.002	58.294
37.002	56.194
38.059	53.921
39.002	61.818
40.002	54.395
41.001	59.453
42.001	57.194
43.001	57.094
44.001	57.094
45.001	58.294
46.002	54.695
47.002	58.194
48.002	57.494
49.002	57.694
50.002	58.094
51.002	55.194
52.002	59.694
53.002	57.994
54.002	56.594
55.002	57.394
56.003	54.495
57.003	58.694
58.090	58.964
59.002	57.341
60.061	54.952
61.002	56.317
62.002	59.994
63.002	59.694
64.002	53.995
65.002	56.594
66.003	57.194
67.003	59.494
68.003	59.294
69.003	54.095
70.003	57.794
71.062	58.823
72.003	55.574
73.003	59.194
74.003	60.094
75.002	53.648
76.003	56.894
77.003	57.194
78.067	61.366
79.003	55.657
80.003	55.994
81.003	57.694
82.064	59.466
83.064	58.094
84.003	58.035
85.003	59.494
86.004	52.895
87.004	56.794
88.004	57.194
89.004	6.499
