Time [s]	Current [nA]
0.000	16.644
1.000	55.894
2.000	56.794
3.057	56.853
3.999	57.213
4.999	59.094
6.000	58.394
7.000	57.094
8.000	56.594
9.000	59.594
10.000	54.695
11.000	57.794
12.000	56.994
13.000	57.194
14.000	59.994
15.000	51.995
16.001	60.494
17.001	58.094
18.001	57.194
19.001	57.794
20.002	60.134
21.000	55.405
22.000	58.394
23.000	57.494
24.000	57.294
25.000	59.194
26.001	53.895
27.058	56.664
28.001	62.136
29.001	57.094
30.001	57.794
31.001	59.994
32.001	55.194
33.001	58.594
34.001	57.394
35.001	57.194
36.002	58.094
37.002	54.495
38.001	58.953
39.001	58.094
40.001	56.394
41.001	56.894
42.001	59.394
43.001	54.795
44.001	57.894
45.001	57.394
46.002	56.394
47.002	56.494
48.002	58.894
49.002	54.495
50.002	57.794
51.002	56.894
52.002	57.794
53.002	59.994
54.002	54.095
55.002	57.994
56.059	54.729
57.002	60.439
58.002	56.794
59.062	55.372
60.002	57.867
61.060	54.626
62.002	59.760
63.002	56.394
64.002	59.694
65.002	52.495
66.003	60.094
67.003	57.594
68.003	56.394
69.003	56.394
70.003	59.294
71.003	54.095
72.003	57.794
73.002	56.951
74.002	57.094
75.004	59.076
76.003	52.500
77.003	59.294
78.003	57.494
79.003	57.194
80.003	56.694
81.003	59.194
82.003	54.595
83.003	58.094
84.003	56.894
85.003	56.494
86.004	57.494
87.004	54.295
88.057	10.920
