Time [s]	Current [nA]
0.000	12.453
1.000	49.600
2.058	49.527
2.999	50.903
3.999	51.000
5.056	47.398
5.999	53.022
6.999	49.700
8.060	49.482
8.999	50.373
9.999	50.600
10.999	49.100
11.999	49.400
12.999	52.300
13.999	47.300
14.999	49.800
15.999	51.400
16.999	50.300
17.999	49.900
18.999	47.300
19.998	52.452
21.008	49.703
21.998	45.556
22.998	49.100
23.998	50.500
24.998	51.200
25.998	45.900
26.998	50.500
27.998	50.000
28.998	50.000
30.057	48.442
30.998	50.159
31.998	50.700
32.998	48.900
33.998	48.900
34.998	51.500
36.095	46.764
36.998	51.495
37.997	50.450
38.997	49.400
40.051	46.679
40.997	54.440
41.997	47.600
42.997	51.100
43.997	49.600
44.997	49.800
45.997	51.200
46.997	50.400
47.997	47.600
48.997	50.600
49.997	49.900
51.052	46.825
51.997	54.286
52.997	47.400
53.997	50.400
54.996	49.249
55.996	49.800
56.996	50.600
58.057	49.199
59.051	47.183
59.996	53.651
60.996	50.100
61.996	49.400
62.996	51.800
64.058	49.435
64.996	47.868
65.996	50.500
67.054	47.070
67.996	52.760
68.996	46.900
69.996	51.600
70.996	50.300
71.996	49.600
72.995	49.249
73.995	51.700
74.995	46.100
75.995	50.900
76.995	50.500
77.995	49.600
78.995	50.400
80.054	48.820
80.995	50.266
81.995	50.300
82.995	49.800
83.995	49.700
84.995	51.500
85.995	45.400
86.995	51.600
87.995	50.200
89.052	46.168
89.994	52.442
90.994	51.900
91.994	47.600
92.994	50.100
93.994	49.200
94.994	49.100
95.994	50.600
96.994	49.900
97.994	47.200
98.994	49.400
99.994	48.900
101.046	21.768
