Time [s]	Current [nA]
0.000	37.934
1.000	57.094
2.000	55.094
3.000	59.994
4.000	58.894
5.001	56.994
6.001	58.594
7.001	57.894
8.001	55.094
9.001	60.194
10.001	58.294
11.001	57.994
12.001	57.794
13.001	54.994
14.063	55.927
15.081	56.435
16.058	58.336
17.001	55.880
18.061	58.956
19.001	57.760
20.001	59.194
21.001	52.995
22.001	57.994
23.001	56.994
24.001	59.094
25.005	59.117
26.002	52.653
27.002	58.194
28.002	57.094
29.002	57.394
30.002	49.095
31.002	23.698
32.002	37.196
33.058	46.113
34.060	54.585
35.002	56.849
36.099	57.879
37.002	58.134
38.002	56.294
39.002	55.694
40.002	56.694
41.002	52.995
42.002	57.994
43.002	51.795
44.002	55.994
45.003	55.694
46.003	57.194
47.003	58.294
48.003	53.895
49.003	57.694
50.002	56.651
51.002	56.594
52.002	58.494
53.002	53.095
54.002	57.094
55.003	55.894
56.003	55.994
57.003	56.294
58.069	55.623
59.066	53.254
60.003	61.360
61.003	57.194
62.003	51.195
63.003	57.494
64.003	57.694
65.003	51.295
66.004	56.694
67.004	55.794
68.003	55.750
69.003	58.094
70.003	53.595
71.003	56.594
72.003	55.394
73.003	55.994
74.058	55.255
75.003	61.370
76.073	52.006
77.004	55.097
78.004	55.894
79.004	55.894
80.004	58.094
81.004	53.095
82.066	58.092
83.004	53.939
84.004	56.094
85.003	58.453
86.088	52.854
87.004	57.309
88.004	56.494
89.004	55.594
90.057	10.635
