Time [s]	Current [nA]
0.000	17.249
0.939	48.030
1.939	50.800
3.002	50.047
3.939	51.334
4.939	50.900
5.939	50.700
7.000	52.403
7.939	51.012
8.939	48.400
9.938	47.047
10.938	42.500
11.938	41.200
12.938	40.500
13.938	39.500
14.938	42.500
15.938	40.800
16.938	41.500
17.938	41.100
18.938	38.700
20.018	43.426
20.938	39.891
21.938	41.700
22.938	41.900
23.938	41.900
25.000	41.996
25.938	42.431
26.938	39.700
27.937	43.043
28.937	43.300
29.937	45.400
30.937	44.400
31.937	41.400
32.937	43.800
33.998	44.863
34.937	41.960
35.937	46.000
36.998	43.732
37.937	44.515
38.937	46.500
39.937	45.300
40.937	46.000
41.937	43.100
42.937	46.800
43.937	46.300
44.936	45.746
45.936	46.900
46.936	43.400
47.936	48.500
48.936	47.200
49.936	46.300
50.936	45.400
51.936	45.700
52.936	44.800
53.936	47.400
54.936	47.400
55.936	46.500
56.997	44.015
57.936	47.071
58.936	49.600
59.936	48.100
60.936	47.500
61.936	48.000
62.935	43.944
63.935	48.900
64.935	44.700
65.935	47.900
66.935	47.000
67.935	46.700
68.992	46.925
70.014	47.945
70.935	48.208
71.935	48.900
72.935	48.700
73.935	49.700
74.935	46.000
75.935	50.400
76.935	48.400
77.935	48.200
78.935	48.600
79.934	45.145
80.934	49.400
81.934	50.500
82.995	45.712
83.934	52.077
84.934	49.600
85.934	46.900
86.934	50.800
87.996	46.799
88.934	52.452
89.934	49.800
91.022	45.313
91.996	52.259
92.934	49.467
93.934	48.700
94.934	48.700
95.934	49.100
96.996	50.188
97.933	49.733
98.933	46.100
99.933	50.400
100.933	49.900
101.933	28.300
102.996	21.731
103.993	37.713
104.933	42.766
105.933	47.900
106.933	50.000
107.933	52.600
109.127	19.514
