Time [s]	Current [nA]
0.000	18.903
0.940	46.591
1.940	48.395
2.940	44.496
3.940	46.895
4.940	46.395
5.941	46.495
6.941	48.195
7.941	48.695
8.997	44.408
10.002	46.264
10.992	46.359
11.941	44.358
12.940	48.444
13.940	47.995
14.940	42.596
15.941	45.595
17.004	47.408
17.941	46.847
18.941	47.695
19.941	42.296
20.941	46.595
21.941	45.295
22.941	45.495
23.941	47.395
24.941	47.395
25.951	45.585
26.942	41.873
27.942	45.495
28.942	47.595
29.942	43.096
30.941	46.642
31.941	46.595
33.006	46.286
33.941	44.594
34.941	46.695
35.942	42.396
36.942	44.796
37.942	44.096
38.998	42.041
39.942	48.936
40.942	41.396
41.942	46.395
42.942	44.696
43.998	41.757
44.942	46.817
45.943	38.196
46.943	38.996
47.942	51.646
48.942	52.195
49.942	51.295
50.942	51.195
51.942	41.096
52.942	43.096
53.942	41.396
54.942	41.096
55.943	41.496
56.943	43.296
57.943	39.896
59.001	40.450
60.001	42.296
60.943	45.218
61.943	42.796
62.997	40.983
64.005	43.845
64.943	41.041
65.999	40.091
66.998	42.438
67.943	47.085
68.943	40.696
69.943	43.096
70.943	42.496
72.005	40.956
73.023	42.334
74.002	45.654
74.943	42.823
75.944	42.696
76.944	42.096
77.944	43.096
78.944	44.696
79.944	40.896
81.029	44.788
81.944	43.165
82.943	43.539
83.943	42.996
84.943	40.596
85.944	44.396
86.944	39.396
87.944	42.596
88.944	45.995
89.997	38.458
90.944	46.352
91.947	44.263
92.944	40.217
93.944	43.396
94.944	43.296
95.945	45.095
97.008	42.235
97.945	42.472
98.945	42.796
99.945	46.595
100.944	40.136
101.944	43.396
102.944	41.496
104.006	45.382
104.944	41.787
105.945	43.596
107.004	43.244
107.945	48.879
109.001	42.515
110.005	43.920
110.945	42.336
112.035	44.491
113.055	32.742
