Time [s]	Current [nA]
0.000	4.380
1.000	57.894
2.000	50.495
3.000	55.794
4.000	52.895
5.000	50.295
6.001	51.695
7.001	50.795
8.001	46.095
9.001	48.895
10.000	48.844
11.000	50.795
12.000	51.795
13.061	47.403
14.000	47.493
15.000	48.595
16.001	49.895
17.054	49.283
18.059	51.537
19.001	48.615
20.001	49.295
21.001	49.395
22.001	50.695
23.001	49.495
24.001	47.195
25.001	50.295
26.062	51.033
27.001	47.706
28.001	51.695
29.060	48.815
30.001	49.411
31.001	49.595
32.001	50.495
33.001	50.395
34.001	51.895
35.001	46.895
36.002	50.195
37.002	50.295
38.002	50.595
39.063	53.529
40.002	51.433
41.002	46.995
42.002	50.295
43.002	50.995
44.002	50.295
45.001	53.348
46.059	49.191
47.002	49.518
48.002	50.595
49.002	50.995
50.058	50.279
51.002	56.350
52.002	47.395
53.002	51.795
54.002	51.295
55.002	51.395
56.003	53.795
57.003	53.595
58.003	48.595
59.003	51.695
60.063	53.297
61.003	51.271
62.002	53.448
63.063	49.571
64.002	49.729
65.002	51.395
66.003	52.195
67.003	53.995
68.003	53.995
69.069	50.652
70.003	50.530
71.003	52.495
72.003	54.495
73.003	52.895
74.003	50.495
75.003	52.795
76.004	52.595
77.004	52.595
78.004	54.195
79.004	51.095
80.003	53.348
81.003	52.295
82.003	52.395
83.003	52.895
84.003	55.094
85.003	50.195
86.004	52.995
87.004	52.795
88.004	52.995
89.004	54.495
90.061	51.650
91.004	51.426
92.004	52.695
93.004	52.395
94.004	52.795
95.004	54.895
96.005	49.795
97.004	53.448
98.004	29.597
