Time [s]	Current [nA]
0.000	19.342
1.000	52.195
2.058	54.059
3.010	58.608
4.063	51.752
5.001	53.250
6.001	54.695
7.001	56.894
8.015	55.123
9.000	51.061
10.000	54.495
11.000	53.995
12.000	55.994
13.000	51.395
14.000	54.095
15.058	51.272
16.001	56.516
17.001	53.595
18.005	55.074
19.001	51.200
20.001	54.395
21.001	53.495
22.001	53.795
23.009	55.153
24.001	50.600
25.002	55.294
26.065	51.265
27.001	57.687
28.001	53.995
29.001	51.395
30.007	56.157
31.001	49.492
32.001	53.295
33.001	53.195
34.001	54.795
35.001	53.995
36.015	54.782
37.002	50.046
38.002	53.195
39.002	53.295
40.002	55.194
41.002	50.795
42.002	53.795
43.002	53.095
44.001	53.248
45.001	54.495
46.063	51.644
47.002	53.243
48.002	54.295
49.061	50.231
50.007	56.443
51.002	50.246
52.002	55.194
53.013	53.110
54.073	49.995
55.013	56.011
56.029	52.751
57.003	53.177
58.003	50.395
59.003	53.995
60.003	53.095
61.003	52.695
62.070	51.166
63.002	53.965
64.002	52.895
65.061	50.846
66.060	52.948
67.058	52.199
68.004	57.711
69.003	30.027
70.003	21.498
71.003	33.897
72.055	41.346
73.006	53.622
74.003	47.538
75.003	54.495
76.004	52.995
77.004	52.195
78.004	52.295
79.074	50.836
80.003	54.031
81.003	52.995
82.003	52.495
83.003	52.595
84.013	53.955
85.032	52.352
86.004	51.538
87.004	52.995
88.004	52.295
89.004	52.395
90.018	54.038
91.004	50.401
92.004	53.295
93.004	52.895
94.004	52.595
95.004	52.895
96.005	22.098
