Time [s]	Current [nA]
0.000	0.185
1.000	48.095
2.000	55.794
3.000	53.695
4.000	53.295
5.000	53.295
6.000	50.746
7.000	55.194
8.000	53.495
9.000	53.095
10.000	53.195
11.000	54.395
12.000	49.095
13.000	54.994
14.000	53.395
15.000	52.195
16.001	52.695
17.001	50.095
18.001	54.395
19.001	53.795
20.059	49.617
21.001	55.939
22.001	52.495
23.001	50.195
24.000	54.749
25.000	52.595
26.001	52.395
27.059	49.428
28.001	52.436
29.001	54.695
30.001	52.695
31.001	52.895
32.001	52.095
33.059	37.142
34.001	20.274
35.001	34.797
36.002	44.596
37.002	50.195
38.002	52.695
39.002	54.795
40.002	48.095
41.001	54.049
42.001	51.895
43.001	51.595
44.001	51.895
45.060	51.129
46.002	52.330
47.060	49.711
48.060	51.895
49.002	56.258
50.002	49.495
51.002	53.195
52.002	49.795
53.002	52.295
54.002	51.695
55.002	51.695
56.003	53.695
57.003	53.795
58.003	48.495
59.002	51.947
60.002	51.395
61.002	51.895
62.002	54.495
63.006	53.381
64.059	49.758
65.002	49.836
66.003	51.795
67.003	53.795
68.003	53.995
69.003	48.095
70.064	53.812
71.003	50.048
72.003	51.695
73.003	54.195
74.003	54.095
75.003	47.995
76.003	51.847
77.003	51.995
78.003	54.095
79.003	53.695
80.003	47.595
81.003	52.995
82.003	51.795
83.003	51.895
84.003	54.195
85.003	49.395
86.004	52.595
87.004	51.895
88.064	53.391
89.004	52.229
90.004	53.595
91.004	48.695
92.004	52.395
93.004	52.195
94.003	51.947
95.003	54.095
96.004	54.595
97.004	48.295
98.004	10.399
