Time [s]	Current [nA]
0.000	8.534
1.000	55.194
2.000	50.595
3.000	54.195
4.000	52.795
5.001	53.395
6.001	53.395
7.001	50.895
8.001	55.194
9.001	54.395
10.001	53.295
11.001	53.495
12.000	50.846
13.000	54.795
14.000	48.295
15.000	53.495
16.001	52.795
17.001	53.295
18.001	54.795
19.001	50.395
20.001	53.295
21.001	52.695
22.001	52.795
23.001	54.495
24.001	48.995
25.001	54.095
26.064	50.748
27.002	55.751
28.064	49.713
29.063	54.849
30.001	53.193
31.001	53.395
32.001	52.795
33.001	52.895
34.001	50.495
35.001	53.095
36.002	50.095
37.002	52.895
38.002	52.595
39.002	52.595
40.002	55.094
41.002	49.995
42.002	53.295
43.002	52.495
44.060	49.995
45.002	56.788
46.003	53.295
47.002	49.645
48.002	53.095
49.002	52.795
50.002	52.895
51.002	49.695
52.002	54.495
53.002	53.095
54.002	52.295
55.002	52.695
56.003	52.695
57.003	50.595
58.003	54.895
59.003	53.095
60.062	49.665
61.003	51.217
62.003	46.795
63.003	19.998
64.002	26.023
65.068	43.751
66.003	45.985
67.003	50.895
68.003	54.095
69.003	50.295
70.003	52.595
71.003	51.995
72.003	52.195
73.003	54.095
74.003	47.895
75.003	53.795
76.004	53.095
77.004	52.195
78.004	52.395
79.004	53.995
80.004	49.595
81.004	53.295
82.060	49.332
83.003	55.562
84.003	54.095
85.003	48.295
86.004	55.094
87.004	53.095
88.004	52.395
89.004	52.495
90.004	50.395
91.004	54.795
92.004	48.795
93.004	52.395
94.004	56.894
95.004	48.095
96.005	55.994
97.149	31.465
