Time [s]	Current [nA]
0.000	26.834
1.000	46.695
2.000	44.896
3.054	46.105
4.000	45.344
5.000	46.595
6.001	50.695
7.001	42.596
8.000	48.644
9.000	48.395
10.000	42.696
11.000	46.295
12.000	46.295
13.000	48.295
14.000	48.595
15.000	42.596
16.001	47.795
17.001	46.495
18.001	46.895
19.001	48.195
20.001	47.995
21.001	42.996
22.001	50.495
23.001	46.495
24.001	44.296
25.000	48.243
26.001	42.996
27.001	46.195
28.001	50.095
29.001	46.295
30.001	44.396
31.001	48.095
32.001	42.796
33.001	45.995
34.050	47.755
35.001	45.632
36.002	46.995
37.002	44.096
38.002	46.095
39.002	45.795
40.002	49.695
41.002	43.696
42.002	47.595
43.001	42.438
44.001	46.095
45.057	47.294
46.002	44.757
47.002	47.595
48.002	26.797
49.002	16.198
50.061	30.025
51.002	37.085
52.002	45.795
53.002	47.695
54.002	42.496
55.002	45.395
56.003	45.295
57.003	49.495
58.003	43.996
59.003	43.896
60.063	47.637
61.002	43.446
62.002	49.595
63.002	43.896
64.002	47.695
65.002	41.996
66.063	48.108
67.062	44.940
68.057	45.724
69.003	45.873
70.003	47.995
71.003	41.996
72.063	46.693
73.003	48.612
74.003	43.596
75.003	47.995
76.004	42.496
77.004	46.295
78.003	45.741
79.003	45.495
80.003	47.495
81.058	44.924
82.003	44.334
83.003	45.295
84.003	49.295
85.003	42.896
86.004	46.095
87.004	43.796
88.004	46.097
89.004	45.700
90.004	45.700
91.004	47.100
92.004	48.000
93.004	42.100
94.062	46.975
95.003	44.315
96.003	45.700
97.003	47.200
98.003	47.700
99.003	41.800
100.061	46.786
101.003	44.480
102.003	47.700
103.003	47.600
104.003	42.600
105.003	45.400
106.003	45.600
107.091	46.232
108.003	47.807
109.003	47.900
110.137	30.600
