Time [s]	Current [nA]
0.000	23.150
1.000	47.100
2.000	46.400
3.000	44.000
4.000	47.000
5.000	48.400
6.000	46.800
7.000	46.000
8.000	46.000
8.999	43.844
9.999	48.500
10.999	46.500
11.999	45.500
12.999	46.000
13.999	46.600
14.999	38.400
15.999	43.300
16.999	41.400
17.999	40.800
19.057	39.225
19.999	42.251
20.999	43.500
21.999	41.700
22.999	40.700
23.999	40.600
24.999	40.500
25.999	38.900
26.998	42.743
27.998	42.000
28.998	42.500
29.998	42.500
30.998	44.100
31.998	40.700
32.998	43.000
33.998	42.600
34.998	42.400
35.998	42.400
36.998	40.600
37.998	44.000
38.998	43.400
39.998	42.800
40.998	43.500
41.998	45.400
42.998	41.600
43.997	44.344
44.997	44.300
45.997	43.500
46.997	43.200
47.997	41.400
48.997	44.900
49.997	44.800
50.997	43.700
51.997	44.000
53.057	43.868
53.997	43.298
54.997	46.700
55.997	45.000
56.997	44.000
57.997	44.600
58.997	42.300
59.997	46.300
60.996	45.846
61.996	44.900
62.996	45.100
63.996	46.600
64.996	41.500
65.996	47.100
66.996	44.800
67.996	44.700
68.996	44.300
69.996	42.700
70.996	46.400
71.996	45.400
72.996	44.600
73.996	44.800
74.996	44.800
76.057	44.769
76.996	45.367
78.053	43.046
78.995	47.877
79.995	45.500
80.995	47.100
81.995	43.200
83.075	46.574
83.995	44.457
85.053	42.628
85.995	48.301
87.000	46.866
87.995	43.819
88.995	46.100
89.995	45.200
90.995	45.300
91.995	43.000
92.995	47.100
94.069	43.017
94.995	15.335
95.994	21.321
96.994	32.800
97.994	37.600
98.994	45.600
99.994	45.300
101.051	42.857
101.994	48.038
102.994	42.900
103.994	45.600
104.994	47.100
105.994	45.700
106.994	45.000
107.994	45.300
108.994	43.100
109.994	46.900
110.994	45.900
111.994	45.600
112.994	45.400
113.993	41.742
114.993	0.500
