Time [s]	Current [nA]
0.000	14.365
1.000	48.400
2.062	46.422
3.000	44.883
4.000	46.100
5.000	46.300
6.000	47.000
7.000	43.200
8.000	47.700
8.999	46.847
9.999	46.100
10.999	46.100
11.999	44.000
12.999	48.300
13.999	46.800
14.999	46.100
16.065	43.340
17.069	45.916
17.999	47.204
18.999	47.700
19.999	46.400
20.999	46.300
21.999	45.800
22.999	44.100
23.999	43.600
24.999	46.600
25.998	47.047
26.998	45.800
27.998	46.000
28.998	47.900
29.998	43.700
30.998	46.200
31.998	46.300
32.998	46.200
34.060	45.009
34.998	45.842
35.998	47.100
36.998	46.100
37.998	45.400
38.998	45.600
39.998	43.600
40.998	47.900
41.998	46.300
42.998	45.800
43.997	45.746
44.997	43.300
45.997	46.200
46.997	48.300
47.997	42.700
48.997	45.900
49.997	46.100
50.997	47.400
51.997	43.500
52.997	46.300
53.997	45.600
54.997	45.500
56.095	46.812
56.997	46.896
57.997	43.300
58.997	46.400
59.997	45.800
60.996	45.846
61.996	48.200
62.996	44.000
63.996	46.600
64.996	46.300
65.996	45.900
66.996	45.900
67.996	43.900
69.054	44.707
69.996	49.257
70.996	45.800
71.996	45.800
72.996	43.700
73.996	47.700
74.996	46.100
76.058	43.597
76.996	48.721
78.053	43.141
79.006	49.948
79.995	44.287
80.995	46.500
81.995	45.800
82.995	45.800
83.995	43.500
84.995	47.000
85.995	47.500
86.995	46.400
87.995	46.400
88.995	46.000
89.995	43.500
90.995	47.900
92.054	44.287
92.995	44.315
93.995	45.800
94.995	47.600
95.994	46.547
96.994	43.700
98.055	47.314
98.994	44.089
99.994	46.100
100.994	47.600
101.994	43.800
102.994	46.600
103.994	46.000
104.994	45.700
105.994	46.100
106.994	47.800
107.994	43.900
109.141	30.427
