Time [s]	Current [nA]
0.000	15.695
0.939	43.344
1.996	46.452
3.033	43.684
3.996	44.444
4.939	45.493
5.938	45.445
6.938	44.700
7.938	44.800
8.938	46.400
9.938	46.900
11.017	42.632
11.938	45.277
12.938	44.900
13.938	44.900
14.997	44.476
15.938	45.484
16.938	18.800
17.938	17.800
18.938	29.200
19.938	34.500
20.938	42.800
21.938	44.200
22.938	45.400
23.937	45.245
24.937	44.900
25.937	42.500
26.995	43.856
27.996	44.755
28.937	46.759
29.937	44.400
30.937	42.200
31.937	45.100
32.937	45.900
33.937	41.600
34.937	44.400
35.937	44.200
36.999	46.799
37.937	44.242
38.991	42.880
39.937	46.507
40.991	41.742
41.936	43.488
42.937	45.295
43.937	46.495
44.937	41.296
45.937	44.496
46.937	48.495
47.937	42.296
48.937	46.095
49.937	41.096
50.937	44.096
51.937	48.095
52.938	40.496
53.938	46.995
54.940	45.704
55.938	41.078
56.938	44.196
57.938	48.195
58.937	42.138
59.937	46.595
60.937	41.096
61.937	44.896
62.938	44.496
63.938	48.295
64.938	42.596
65.996	43.852
66.938	43.945
68.000	46.511
68.938	42.746
69.938	46.195
70.938	41.796
72.007	45.833
72.939	44.356
74.004	46.474
75.002	45.386
75.938	40.808
76.994	44.219
77.994	44.596
78.938	47.241
79.993	42.365
80.938	48.778
82.033	41.183
83.001	47.772
83.995	41.143
84.994	44.440
85.995	44.551
86.998	46.257
88.001	47.253
88.993	40.722
89.995	43.908
90.994	44.140
91.939	48.778
93.017	41.500
94.004	47.412
95.002	40.978
95.996	44.865
96.996	43.996
97.996	46.195
99.002	46.715
99.997	40.800
100.996	44.940
101.939	46.655
102.940	43.996
103.940	42.596
104.996	44.219
105.940	47.453
106.940	43.996
107.940	43.796
108.999	43.244
109.940	44.523
111.021	45.694
111.939	43.569
112.940	44.396
113.940	37.396
