Time [s]	Current [nA]
0.000	42.596
1.000	47.395
2.000	43.896
3.000	46.595
3.999	46.342
4.999	46.595
6.000	48.195
7.000	43.796
8.000	46.895
9.000	46.395
10.000	46.395
11.000	47.695
12.000	46.595
13.000	43.996
14.000	47.395
15.000	45.895
16.001	45.895
17.001	43.396
18.001	47.595
19.001	46.995
20.001	46.295
21.001	46.095
22.000	46.342
23.000	43.696
24.000	48.095
25.000	45.895
26.001	45.795
27.001	45.895
28.001	43.396
29.001	47.595
30.001	41.996
31.001	46.795
32.001	45.495
33.001	45.395
34.001	47.195
35.001	43.396
36.002	46.095
37.002	45.295
38.002	44.995
39.001	46.742
40.001	42.196
41.001	46.195
42.001	45.795
43.001	45.695
44.001	41.796
45.001	15.998
46.002	20.898
47.002	32.597
48.002	40.396
49.002	43.696
50.002	42.496
51.002	45.495
52.002	47.595
53.002	46.195
54.002	45.195
55.002	45.495
56.059	41.000
57.002	49.942
58.002	41.996
59.002	45.495
60.067	46.850
61.002	44.701
62.002	46.595
63.002	43.196
64.002	45.695
65.065	47.547
66.003	43.706
67.003	47.095
68.003	42.896
69.003	46.195
70.003	45.096
71.003	45.495
72.003	45.695
73.003	43.296
74.002	46.942
75.002	45.795
76.003	45.195
77.003	45.195
78.003	42.896
79.003	46.595
80.003	45.495
81.003	45.495
82.003	45.495
83.003	45.195
84.003	42.996
85.066	44.063
86.004	48.822
87.004	45.295
88.004	41.196
89.004	46.795
90.004	47.095
91.003	41.838
92.003	45.595
93.003	44.995
94.068	46.662
95.063	42.752
96.004	45.266
97.004	45.795
98.004	45.095
99.004	45.295
100.062	44.135
101.004	48.084
102.004	43.296
103.004	45.495
104.004	44.896
105.004	44.896
106.005	47.095
107.005	43.096
108.005	45.495
109.004	45.041
110.058	42.785
111.222	32.299
