Time [s]	Current [nA]
0.000	36.000
1.000	47.500
2.000	45.200
3.000	49.200
4.000	48.200
5.000	48.200
6.000	47.900
7.058	47.070
8.089	47.139
9.000	40.615
10.000	9.500
10.999	14.214
11.999	22.900
12.999	27.400
14.061	34.181
14.999	40.832
15.999	41.200
17.061	39.077
17.999	41.578
19.063	45.677
20.062	39.139
20.999	45.037
21.999	42.200
22.999	41.700
23.999	41.300
24.999	45.200
25.999	40.100
26.999	46.700
27.999	38.900
28.998	42.643
29.998	44.000
31.057	41.171
31.998	42.827
32.998	43.300
33.998	43.000
34.998	44.800
35.998	44.900
36.998	40.200
37.998	43.800
38.998	43.200
39.998	43.800
41.062	46.992
42.055	42.497
42.998	43.054
43.998	43.500
44.998	43.600
45.997	44.845
46.997	39.700
47.997	48.200
48.997	41.000
49.997	44.600
50.997	44.900
51.997	46.700
52.997	42.800
53.997	45.800
54.997	44.900
55.997	45.000
56.997	46.300
57.997	45.600
58.997	41.600
59.997	44.100
61.062	45.822
61.997	43.422
62.996	47.247
63.996	42.900
64.996	46.400
65.996	46.100
66.996	45.800
67.996	46.400
68.996	46.400
69.996	43.600
70.996	46.000
72.061	46.667
72.996	43.636
73.996	47.700
74.996	43.100
75.996	46.400
76.996	46.400
77.996	45.900
78.996	46.500
79.996	49.100
80.995	43.844
81.995	47.100
82.995	46.000
83.995	46.500
84.995	48.300
85.995	48.600
86.995	43.200
87.995	46.800
88.995	46.900
89.995	46.800
90.995	49.100
91.995	44.400
92.995	47.600
93.995	46.800
94.995	46.800
95.995	48.600
96.995	44.000
97.994	51.451
99.056	44.915
99.994	46.482
100.994	47.300
101.994	49.100
102.994	49.000
104.052	44.991
104.994	45.648
105.994	46.900
106.994	48.400
107.994	49.200
108.994	44.300
109.994	47.300
110.994	47.400
111.994	47.200
113.147	24.371
