Time [s]	Current [nA]
0.000	23.969
0.999	59.654
2.032	56.045
2.998	56.930
3.944	61.727
5.002	54.583
5.998	58.428
6.944	58.979
8.007	62.082
9.003	53.107
9.999	58.428
10.993	58.948
12.023	57.373
13.003	60.198
14.007	60.950
14.999	53.220
16.001	57.637
17.003	58.078
18.004	60.334
19.008	61.249
20.003	53.361
21.000	57.768
22.003	57.522
23.012	57.675
24.000	61.026
25.007	60.233
26.002	53.864
27.001	58.052
28.002	57.037
29.004	59.475
29.945	58.018
30.945	58.294
32.002	55.340
33.003	56.438
33.999	56.721
35.007	58.683
36.000	54.577
37.001	56.937
38.001	62.194
39.004	50.842
40.007	58.020
41.013	59.934
41.999	52.327
43.003	57.166
43.994	56.907
45.000	55.064
46.001	58.394
47.008	59.577
47.946	55.432
49.003	53.448
50.001	57.109
51.000	60.054
52.033	56.529
53.002	55.103
54.002	56.694
55.000	56.708
56.004	56.226
57.001	59.071
58.009	58.526
59.004	51.151
60.004	56.094
61.004	56.494
62.024	56.563
63.002	59.912
64.009	60.471
65.003	52.409
66.013	61.441
67.001	52.120
68.002	58.735
69.009	59.875
70.001	52.515
71.002	56.138
72.008	57.648
73.033	63.018
74.007	55.128
75.004	54.659
76.004	57.752
77.001	56.363
78.002	56.038
79.006	59.157
80.004	55.305
81.032	61.278
82.009	51.991
83.005	57.725
84.004	48.043
85.002	16.131
86.010	26.313
87.005	39.393
88.004	47.543
89.005	46.749
