Time [s]	Current [nA]
0.000	43.896
1.005	16.914
2.004	15.114
3.001	26.176
4.039	39.688
5.006	52.583
6.002	54.011
7.002	57.794
8.003	58.735
8.994	55.292
10.001	60.570
10.996	51.854
11.996	56.894
13.002	57.350
14.040	56.931
15.005	62.649
16.001	55.617
16.998	58.570
17.940	60.079
19.002	54.608
20.003	60.933
21.002	53.448
22.002	56.094
22.998	57.022
24.002	57.664
25.031	56.901
26.003	55.241
27.004	60.633
28.006	57.679
29.001	57.582
30.002	58.536
30.998	54.613
32.002	60.850
33.013	57.660
34.002	54.292
35.007	59.257
36.002	59.894
37.007	61.685
38.002	56.075
39.000	59.513
40.000	58.194
41.002	58.477
42.003	60.334
42.997	55.628
44.013	58.065
44.940	58.570
46.006	61.215
47.007	58.136
48.003	54.312
49.006	61.210
50.006	60.094
51.003	58.871
52.003	57.094
53.000	54.659
54.041	58.592
55.003	61.908
56.005	52.989
57.004	58.853
58.005	59.135
59.007	62.070
60.004	54.759
61.003	58.453
61.998	58.989
62.998	58.394
64.003	60.790
65.016	52.268
65.998	61.705
67.001	59.615
68.003	58.477
69.007	58.759
70.000	56.389
71.000	60.994
72.000	59.594
73.000	58.294
74.003	58.618
75.021	60.368
76.005	54.161
76.943	59.269
78.005	61.199
79.004	53.648
80.004	59.294
81.004	60.794
81.997	55.684
83.000	58.917
83.998	58.812
85.001	58.519
86.003	58.635
87.002	60.955
88.009	49.548
