Time [s]	Current [nA]
0.000	15.262
1.002	61.870
2.002	59.194
2.998	58.227
3.997	58.853
5.035	56.311
5.994	58.597
7.002	60.510
7.998	59.331
8.997	57.552
9.998	58.136
10.991	55.483
11.998	60.371
12.937	57.289
14.002	60.182
14.997	56.376
15.998	58.094
16.995	55.561
18.001	60.431
19.003	61.072
20.002	57.752
20.998	57.424
21.994	55.416
22.998	60.253
24.019	56.703
25.003	60.360
26.000	58.930
26.992	52.616
27.998	60.034
28.994	54.914
29.995	58.336
30.996	58.336
31.995	58.653
32.995	60.694
34.046	56.607
34.994	57.589
35.997	58.777
36.996	57.552
37.996	58.394
39.007	59.539
39.997	55.651
40.997	58.594
41.996	58.252
42.996	58.094
44.025	56.943
44.938	57.826
45.998	56.557
46.997	57.252
47.995	56.908
48.995	57.294
49.998	59.416
51.000	60.972
51.996	53.408
52.997	57.137
53.997	56.794
55.039	62.722
56.002	55.135
56.998	54.312
57.998	57.994
58.996	57.008
59.996	56.794
61.006	58.608
61.992	56.282
63.019	63.674
64.001	53.457
64.939	61.508
65.998	54.531
67.007	58.765
67.996	54.595
68.998	57.280
69.995	57.868
70.997	57.280
72.001	59.058
73.002	60.633
74.015	57.842
75.002	53.389
75.997	57.640
76.998	57.836
78.002	59.655
78.996	56.031
79.998	58.577
80.998	58.194
81.940	61.565
83.005	56.896
84.031	59.058
84.994	56.069
85.999	58.659
86.995	11.846
