Time [s]	Current [nA]
0.000	53.397
1.000	59.394
2.004	58.261
3.002	57.008
4.002	56.494
5.001	53.502
5.944	63.302
7.018	53.440
8.004	59.122
9.003	56.551
10.002	56.451
11.001	53.248
12.005	58.859
13.004	57.852
13.944	54.675
15.005	58.579
16.000	53.361
16.945	62.322
18.010	54.736
19.011	57.537
19.944	55.086
21.004	58.768
21.944	56.909
23.001	55.907
24.004	57.920
25.005	56.794
26.002	56.363
27.008	58.344
28.022	50.587
29.006	60.157
30.005	57.552
31.006	56.338
32.011	56.910
33.001	54.439
34.005	58.759
35.007	57.736
36.006	56.451
37.006	56.694
38.027	56.997
39.007	52.342
40.003	59.532
41.006	56.624
42.005	55.850
43.005	56.494
44.003	53.001
45.000	59.472
46.007	57.350
47.007	56.494
48.006	56.551
49.030	56.049
50.005	55.071
51.006	59.035
52.007	56.138
53.006	56.151
54.005	56.251
55.002	53.154
56.005	58.278
57.015	56.826
58.007	57.958
59.005	57.810
60.005	57.494
61.002	54.558
62.009	59.378
63.007	58.411
64.006	57.852
65.005	57.652
66.009	59.615
67.019	53.460
68.009	59.489
69.007	57.109
70.007	56.694
70.947	54.675
72.001	56.731
73.002	59.335
74.007	58.303
75.006	57.952
76.006	57.852
77.001	54.065
78.038	56.311
79.007	62.429
80.007	57.894
81.006	56.851
82.003	57.968
83.009	60.630
84.006	55.361
84.947	57.274
86.009	59.561
87.133	41.989
