Time [s]	Current [nA]
0.000	17.521
1.032	54.743
1.998	57.137
3.000	59.176
4.002	58.577
4.999	56.363
5.998	57.409
7.004	57.946
7.999	53.060
9.016	55.648
10.002	57.296
11.002	55.095
11.997	56.376
13.003	59.636
14.000	54.057
15.000	57.694
16.000	56.851
16.998	57.209
18.004	60.034
19.005	53.841
20.007	57.779
21.001	57.942
22.000	56.551
22.993	57.195
24.004	58.847
25.002	54.859
25.997	58.386
26.996	57.352
28.003	56.896
29.008	58.701
30.022	51.671
31.001	60.668
32.002	58.336
33.002	57.094
34.003	56.338
35.004	58.136
36.002	53.054
37.005	57.821
37.998	57.195
39.000	56.980
40.017	58.893
41.013	58.127
42.000	53.693
43.006	57.151
44.000	55.326
45.003	55.528
46.001	53.054
47.002	57.337
48.002	55.994
48.999	54.859
49.999	54.695
51.027	53.691
52.000	54.054
53.001	57.137
54.000	55.050
55.001	54.041
55.999	54.959
57.006	57.293
58.002	51.300
59.018	55.211
60.004	57.094
61.002	55.105
62.002	55.594
63.005	57.522
64.001	52.204
65.003	55.883
66.001	54.358
66.998	54.659
68.006	56.046
69.005	51.546
70.010	56.611
71.004	56.835
72.003	55.650
73.005	55.084
74.005	57.894
75.003	51.498
76.002	55.706
77.002	54.495
77.995	54.677
79.006	57.066
80.028	50.386
80.998	59.891
82.003	55.616
83.004	53.541
83.998	54.823
85.005	57.392
86.003	51.249
87.003	56.394
88.002	54.749
88.999	56.063
90.000	6.593
