Time [s]	Current [nA]
0.000	25.513
1.004	58.759
2.004	59.694
3.004	60.194
4.001	56.564
5.005	64.002
6.015	60.885
7.001	55.065
8.002	59.435
9.001	60.254
10.000	63.157
10.995	56.276
12.000	61.287
13.001	60.833
14.001	61.194
15.005	63.304
15.994	56.718
17.021	65.329
18.001	55.301
19.002	59.834
20.002	59.394
21.005	61.908
22.001	55.918
23.001	59.594
23.940	63.039
24.999	55.802
26.004	61.846
27.021	49.454
28.000	51.476
29.005	45.070
30.005	45.495
31.004	46.542
32.003	43.539
33.005	48.199
34.004	46.242
35.003	46.488
35.991	42.101
37.031	46.726
38.001	50.098
38.995	45.167
40.003	49.301
41.003	47.795
42.003	48.395
42.995	50.398
43.997	46.602
45.007	51.234
46.004	49.644
47.006	49.795
48.011	49.547
49.006	54.065
50.002	47.987
51.003	51.743
52.003	51.595
53.003	51.895
54.007	54.377
54.999	48.886
56.011	52.121
57.004	52.563
57.942	56.071
59.004	50.089
60.007	56.624
61.004	51.148
61.999	55.271
63.000	55.739
63.995	55.773
65.002	58.286
66.027	50.288
66.995	57.949
68.009	55.813
69.008	56.351
70.008	57.594
71.003	54.567
72.004	58.735
73.007	57.422
74.007	56.494
75.008	57.294
76.022	52.362
77.004	59.566
78.008	60.353
79.008	57.394
80.002	57.338
80.993	52.871
81.997	58.759
83.003	59.437
83.998	52.055
84.999	56.937
85.998	57.509
87.045	62.267
88.009	56.633
89.005	55.517
90.005	58.994
91.104	43.854
