Time [s]	Current [nA]
0.000	56.219
0.996	52.103
2.000	56.468
2.996	55.517
3.996	55.694
4.997	57.637
5.995	51.951
7.029	59.762
8.001	51.332
9.001	55.494
10.001	55.594
11.004	57.422
12.000	51.501
13.001	55.439
14.000	55.650
14.939	58.780
16.001	54.000
17.016	58.516
18.002	51.009
19.002	55.694
20.001	56.351
21.001	56.094
21.997	58.127
22.995	52.600
24.002	56.598
24.997	56.075
25.998	55.794
26.990	59.067
28.037	55.868
29.002	54.502
30.001	56.050
31.001	55.694
32.002	55.439
33.001	58.453
33.996	52.759
35.000	56.767
36.002	56.038
37.002	56.294
38.020	56.576
39.001	59.525
40.000	53.248
41.003	56.325
41.998	56.276
42.997	55.550
43.995	57.609
45.003	58.823
46.003	51.847
46.999	55.918
47.941	58.699
49.025	51.194
50.002	60.485
50.997	52.859
52.002	48.652
52.999	20.560
53.998	30.527
55.000	45.005
56.006	54.223
57.029	52.683
58.005	50.917
58.942	59.546
60.004	52.820
61.005	58.236
62.003	51.798
62.995	56.345
64.001	54.666
65.001	55.094
66.004	57.380
67.012	51.483
68.004	57.252
69.003	54.949
70.002	55.150
71.003	54.940
71.942	54.627
73.001	54.197
74.002	55.639
75.001	55.050
76.001	54.449
76.997	51.702
78.022	54.921
79.004	58.752
80.008	55.572
81.003	55.271
82.002	55.350
82.999	51.951
84.001	57.779
85.004	56.824
86.003	55.505
87.005	55.982
88.040	56.999
89.005	52.016
90.003	58.311
91.119	27.865
