Time [s]	Current [nA]
0.000	11.582
1.024	57.026
2.003	59.851
2.999	54.513
3.998	58.453
4.996	57.710
5.997	58.294
7.005	61.006
7.993	55.764
8.999	57.450
9.996	56.765
11.000	57.464
12.028	57.387
12.997	56.238
13.997	59.494
15.002	58.062
15.999	57.467
16.996	57.567
18.005	60.846
19.001	54.814
20.021	58.229
21.007	60.440
22.007	58.894
23.005	58.712
23.998	55.080
25.005	60.133
25.999	52.309
26.998	56.651
27.997	56.751
28.999	58.677
30.009	59.103
31.010	57.037
32.004	52.610
32.999	57.281
33.995	55.517
35.001	57.748
36.005	59.017
37.002	50.948
38.002	56.194
38.997	56.477
40.002	58.502
41.028	56.330
42.001	54.671
43.005	56.568
44.002	57.166
44.998	57.022
46.005	59.736
46.943	57.031
47.999	54.635
48.943	54.656
49.996	41.781
50.943	17.422
51.998	30.423
53.002	43.621
54.011	51.432
55.003	53.724
56.002	56.808
57.006	60.452
58.003	54.358
59.003	58.894
60.003	56.294
61.002	57.051
62.013	55.979
63.005	60.377
64.002	53.254
65.003	58.436
65.996	57.756
67.002	55.561
68.007	60.193
69.004	54.859
70.018	57.785
71.009	60.236
72.009	58.194
73.006	58.269
74.002	54.513
75.006	60.054
75.999	52.616
77.000	56.738
77.945	61.793
79.002	57.043
80.038	58.392
81.006	59.601
81.999	52.361
82.998	57.051
84.006	62.990
85.002	54.814
86.006	61.111
87.003	52.552
88.003	57.494
88.998	57.783
89.998	6.299
