Time [s]	Current [nA]
0.000	47.834
0.995	55.170
1.995	55.394
2.994	57.852
4.000	57.947
5.000	51.295
5.938	59.546
7.000	52.066
8.003	58.219
9.032	53.833
10.000	47.309
10.993	47.125
11.996	45.758
12.996	45.695
13.993	44.028
14.996	48.350
16.003	47.411
17.005	46.003
18.003	47.390
19.032	46.837
20.001	46.125
21.003	48.598
22.003	45.595
23.003	45.695
24.003	47.095
24.995	45.157
25.999	49.048
27.003	48.202
28.004	49.446
29.000	48.790
30.001	48.646
30.996	46.528
31.995	50.145
33.004	49.450
34.001	49.243
35.000	50.345
35.997	45.979
36.940	49.094
38.026	51.468
39.005	53.212
40.005	51.295
41.005	50.995
41.997	48.080
43.001	53.680
43.996	46.829
45.001	50.841
46.002	51.795
47.001	54.449
48.041	51.149
49.002	50.047
49.999	52.552
50.997	52.099
51.996	52.647
53.002	54.865
53.999	50.446
55.005	54.368
56.003	53.154
57.003	53.595
58.021	54.710
59.005	49.080
60.005	55.794
61.005	53.095
62.005	53.295
63.005	53.295
63.997	50.499
64.997	55.594
66.002	54.775
67.002	54.395
68.002	54.295
69.034	52.417
70.003	51.904
70.996	55.785
72.002	55.660
73.006	54.477
74.006	55.094
74.999	51.556
75.998	56.608
77.025	54.328
78.007	56.613
79.002	55.070
80.003	54.740
80.998	52.357
81.997	56.551
83.002	55.517
84.002	54.994
85.003	55.139
86.000	52.003
87.001	57.836
88.022	55.332
89.007	57.456
90.005	56.407
91.000	50.347
92.001	57.836
93.003	58.876
94.003	51.595
95.003	56.094
95.996	16.027
