Time [s]	Current [nA]
0.000	23.959
0.946	57.922
2.027	55.776
3.000	60.939
4.008	58.427
5.009	57.494
6.007	57.309
7.001	54.622
8.005	59.655
9.008	57.621
10.011	57.322
11.011	56.994
11.946	56.251
13.012	53.559
14.012	59.194
15.013	56.594
16.009	57.324
17.001	51.205
18.009	58.625
19.008	59.253
20.006	51.999
21.005	56.851
22.005	57.094
23.026	56.018
24.006	60.300
25.000	52.610
26.005	55.074
27.011	60.730
27.996	51.467
29.005	57.972
30.012	59.875
31.027	56.448
32.012	58.776
33.012	57.294
34.007	57.683
35.008	53.495
36.012	61.050
37.005	53.268
38.005	57.994
39.004	58.653
40.003	60.454
40.948	56.396
42.010	60.540
43.004	52.309
44.005	57.836
45.010	58.162
46.007	59.874
46.948	57.168
48.005	54.015
49.001	57.022
50.002	57.637
51.007	58.900
51.948	55.892
52.948	59.794
54.006	54.909
55.007	57.594
56.006	58.553
56.949	57.895
58.011	61.764
59.006	52.859
60.007	57.736
61.005	57.609
62.014	59.162
63.022	58.129
64.009	56.124
65.008	58.511
66.007	57.652
67.011	58.062
68.004	55.785
69.007	59.516
70.007	58.194
71.009	56.980
72.005	57.926
73.043	55.486
74.005	56.855
75.008	59.176
76.007	57.552
77.011	56.369
78.007	58.227
79.004	53.656
80.005	59.035
80.949	55.079
82.015	59.375
83.015	56.194
84.014	55.850
85.011	53.509
86.010	58.453
87.015	57.606
88.003	6.173
