Time [s]	Current [nA]
0.000	21.645
1.000	56.294
2.002	56.781
2.997	53.763
4.030	55.464
5.003	61.311
6.008	56.412
7.004	57.022
8.004	56.394
8.997	54.174
9.998	59.335
11.003	57.805
12.001	57.008
12.942	54.830
14.042	57.085
15.000	53.752
15.995	56.433
17.001	55.561
18.002	53.941
19.004	54.985
19.994	52.722
21.000	57.151
22.006	57.151
23.001	55.773
24.006	56.412
25.019	55.034
25.999	53.566
26.943	59.422
28.002	52.592
29.002	54.994
30.002	54.994
30.997	53.060
31.998	57.637
33.021	54.051
34.004	57.268
35.001	54.859
36.003	54.840
36.943	54.782
37.998	54.686
39.004	56.058
40.002	55.205
41.003	55.639
41.997	52.510
43.015	56.674
44.002	57.644
45.003	55.938
46.004	54.495
47.002	54.203
48.001	51.246
49.002	56.538
50.004	56.282
51.004	54.195
52.003	54.749
52.999	51.601
54.031	53.774
55.003	59.871
56.005	54.540
57.003	54.403
58.004	54.340
58.999	50.849
59.995	56.219
61.005	55.143
62.002	54.759
63.006	53.979
64.035	55.194
65.001	51.755
65.999	57.968
67.004	56.014
68.004	55.294
69.004	54.695
69.998	51.303
71.002	56.468
72.008	54.865
73.004	54.312
74.008	54.576
75.023	53.939
76.003	53.974
76.999	58.127
78.005	57.350
79.007	55.982
80.007	55.894
80.999	53.221
82.003	58.361
83.027	56.049
84.010	59.099
85.012	56.038
86.006	56.534
87.002	53.308
88.001	58.453
89.005	57.464
90.147	40.189
