Time [s]	Current [nA]
0.000	51.656
1.006	61.326
2.003	55.060
3.000	61.779
4.000	59.094
5.011	43.758
6.019	18.451
7.003	29.164
7.945	42.459
9.007	51.784
10.003	52.605
11.007	56.568
12.000	55.886
12.999	61.055
14.015	57.868
15.003	61.291
16.005	58.278
17.003	58.912
18.007	61.747
19.004	56.163
20.013	59.954
21.004	59.429
22.017	57.842
23.002	57.152
24.037	58.255
25.002	62.688
26.007	59.655
27.005	58.912
28.001	59.131
29.008	61.761
30.003	56.477
31.008	60.193
32.001	60.618
33.004	58.519
34.007	62.008
35.036	59.722
35.995	57.137
37.004	58.468
38.004	58.194
39.002	58.411
40.015	61.692
41.005	54.944
42.010	59.298
43.004	59.250
44.008	57.564
45.030	58.172
46.003	55.287
47.004	59.934
48.006	60.074
49.008	58.078
50.003	57.984
51.008	60.889
52.005	54.458
53.004	59.954
54.003	57.452
55.002	57.051
56.019	57.770
57.002	56.963
58.008	59.537
59.012	60.353
60.008	58.428
61.003	56.879
62.009	60.928
63.006	54.759
64.022	58.459
65.007	61.212
66.008	58.394
67.008	58.094
68.010	61.670
69.009	55.450
70.008	58.853
71.005	57.868
72.004	57.852
73.010	59.736
74.012	53.687
75.014	58.036
76.009	59.291
77.009	57.894
78.007	57.810
79.011	59.954
80.007	55.215
81.008	60.533
82.009	57.936
83.003	58.344
84.010	62.059
85.053	59.399
86.005	56.297
87.000	23.415
