Time [s]	Current [nA]
0.000	24.825
1.101	66.297
2.059	62.624
3.060	64.929
4.059	64.358
5.061	65.128
6.000	64.211
7.059	63.355
8.065	66.196
9.065	63.794
10.060	64.014
11.089	63.162
12.057	61.564
13.063	65.600
14.060	65.189
15.061	63.794
16.060	63.757
17.059	60.955
18.057	66.025
19.000	62.348
20.000	64.594
21.063	65.845
22.000	61.787
23.058	63.321
24.060	65.762
25.062	63.530
26.062	63.194
27.061	63.857
28.001	63.292
29.051	63.137
30.073	62.029
31.066	65.452
32.067	63.131
33.061	64.279
34.057	60.034
35.058	65.993
36.061	64.998
37.001	60.951
38.063	65.530
39.057	60.557
40.089	62.688
41.062	57.548
42.065	33.795
43.062	50.346
44.062	61.494
45.056	61.827
46.059	70.083
47.063	65.730
48.061	61.717
49.063	61.172
50.077	63.307
51.068	56.604
52.063	65.119
53.067	61.747
54.067	61.094
55.063	62.004
56.059	59.030
57.057	65.825
58.068	63.594
59.063	63.009
60.063	62.794
61.091	62.737
62.064	61.453
63.060	65.957
64.068	63.883
65.063	63.776
66.064	63.230
67.059	59.693
68.064	66.461
69.085	62.775
70.068	65.507
71.063	64.014
72.063	63.694
73.056	60.920
74.057	66.127
75.064	64.606
76.064	63.794
77.064	64.494
78.058	60.658
79.057	66.960
80.062	7.263
