Time [s]	Current [nA]
0.000	51.982
1.056	59.180
2.056	62.894
3.056	64.993
4.062	66.296
5.068	63.277
6.063	57.984
7.000	67.229
8.062	59.222
9.065	65.896
10.055	58.782
11.062	62.456
12.062	62.094
13.062	61.594
14.061	64.458
15.079	64.005
16.064	58.674
17.001	67.869
18.056	59.046
19.056	62.494
20.062	65.202
21.060	58.812
22.062	64.564
23.065	61.908
24.065	60.794
25.059	57.900
26.081	60.757
27.063	66.796
28.058	55.170
29.057	60.755
30.055	61.517
31.059	63.241
32.063	65.133
33.053	56.358
34.060	60.272
35.057	62.243
36.101	66.373
37.002	56.709
38.054	59.785
39.063	61.243
40.063	61.794
41.063	60.994
42.061	63.020
43.063	63.766
44.001	58.523
45.064	58.186
46.065	61.333
47.060	61.602
48.002	63.051
49.002	63.994
50.069	58.570
51.065	62.343
52.064	42.338
53.055	26.233
54.065	42.570
55.072	53.673
56.068	62.243
57.067	61.555
58.064	61.378
59.061	56.363
60.065	63.938
61.059	55.427
62.002	64.787
63.064	62.706
64.060	57.123
65.098	60.071
66.065	65.040
67.061	56.019
68.061	61.594
69.061	61.794
70.062	63.430
71.065	63.802
72.062	55.461
73.061	60.555
74.060	60.655
75.076	61.570
76.072	63.046
77.064	59.167
78.003	66.447
79.066	58.226
80.062	62.142
81.068	64.109
82.064	47.284
