Time [s]	Current [nA]
0.000	57.863
1.001	61.832
2.005	60.452
3.030	60.189
4.007	66.012
5.005	58.169
6.001	62.745
7.001	62.594
7.996	62.205
9.008	63.531
10.000	59.671
11.014	61.730
12.006	63.199
13.009	61.709
14.009	61.094
15.006	58.528
16.010	64.735
17.010	62.394
18.009	62.456
19.009	61.594
20.001	57.454
21.028	61.727
22.009	63.704
23.004	62.004
24.006	60.273
24.998	55.337
26.003	62.046
27.010	63.549
27.998	56.674
28.993	60.898
30.006	65.344
31.001	57.884
32.039	58.665
33.005	60.449
34.006	61.033
35.007	59.794
36.006	59.754
37.010	63.639
37.993	57.675
39.006	60.310
40.005	60.855
41.005	61.094
42.041	59.550
42.944	62.895
43.999	59.425
45.006	61.028
46.007	60.533
47.007	59.894
48.011	62.544
49.001	57.267
50.010	60.945
51.008	60.515
52.012	60.751
53.015	60.213
54.010	64.215
55.007	58.428
56.004	61.579
57.006	60.972
58.000	61.966
59.007	64.542
60.001	58.545
61.021	60.386
61.945	63.197
63.010	63.843
64.010	62.594
65.007	59.030
66.012	64.869
67.011	61.255
68.012	60.134
69.012	60.594
70.007	57.381
71.034	60.559
72.011	62.123
73.007	61.138
73.999	54.329
75.010	65.736
76.006	56.320
77.009	62.207
78.003	54.220
79.003	58.894
80.007	59.556
81.006	62.256
82.007	11.787
