Time [s]	Current [nA]
0.000	29.204
1.002	55.583
1.994	58.160
2.999	59.298
4.006	59.378
5.003	52.505
6.003	57.594
6.995	57.555
8.004	58.567
9.031	56.762
9.999	56.813
11.007	58.625
12.007	57.294
13.008	50.844
14.011	22.829
15.008	28.110
16.006	42.881
17.001	50.347
18.001	53.995
19.043	56.616
20.007	62.546
21.003	54.814
22.005	57.978
23.000	57.884
24.005	57.407
25.008	61.172
26.005	54.859
27.007	59.475
28.002	58.688
29.008	57.946
30.010	59.176
31.008	62.719
32.003	55.974
33.001	59.112
33.945	56.350
35.003	60.543
36.007	61.846
37.004	55.060
38.023	58.875
39.010	61.899
40.011	59.035
41.012	58.536
42.008	55.717
43.013	60.989
44.012	59.153
45.009	59.131
46.009	58.294
47.009	55.194
48.048	58.608
49.009	62.117
50.004	54.768
51.001	57.667
52.007	56.953
53.002	60.295
54.009	60.073
55.003	53.315
56.002	57.509
57.004	57.280
58.006	58.976
59.043	56.021
60.001	56.153
61.001	56.294
62.003	56.282
63.005	55.883
64.006	58.536
65.010	60.014
66.004	52.510
67.004	56.294
68.004	57.094
69.035	54.117
69.947	63.042
71.009	55.832
72.004	51.352
73.004	55.694
74.004	55.994
74.947	61.500
76.011	55.780
77.010	51.546
78.010	56.794
79.014	56.369
79.948	60.058
81.010	56.397
82.008	52.901
83.009	56.438
84.009	56.594
84.947	53.939
86.003	55.539
87.007	57.962
88.022	56.251
88.948	13.714
