Time [s]	Current [nA]
0.000	38.986
0.999	51.646
1.997	49.494
2.940	56.728
4.019	48.559
5.001	53.206
6.002	50.345
6.999	51.549
7.994	48.739
8.999	54.323
10.002	53.235
11.000	51.698
11.999	51.346
13.002	53.434
13.999	48.541
14.941	56.788
16.000	51.507
17.003	53.135
18.001	52.800
18.990	50.753
19.994	55.074
21.000	53.871
22.001	53.441
22.999	54.103
24.002	56.525
25.029	47.364
25.996	56.871
27.003	52.924
27.996	53.972
29.002	53.772
29.999	51.850
31.000	57.237
31.999	55.450
33.001	53.787
33.999	53.702
35.014	55.024
36.004	50.197
36.998	57.942
38.001	56.226
39.001	53.695
40.001	54.895
40.997	53.308
42.001	58.460
43.002	57.437
43.998	56.320
44.993	55.874
46.040	52.672
46.995	55.073
48.000	57.407
49.003	56.924
50.002	57.752
51.001	57.452
52.005	60.552
53.000	54.768
54.027	55.691
55.008	59.586
56.003	56.979
56.943	54.995
58.000	56.475
59.000	59.994
60.004	59.058
61.004	58.894
61.943	57.822
63.001	57.367
64.007	60.730
65.004	59.372
66.003	59.413
66.944	56.530
68.003	61.278
68.998	56.477
70.003	60.093
71.008	61.088
72.009	58.835
73.003	58.646
74.006	60.114
75.023	52.652
76.000	63.146
77.004	58.958
78.001	58.670
79.000	58.853
80.006	61.326
80.944	57.457
82.004	55.749
83.000	57.926
84.003	58.618
85.039	58.835
86.002	55.342
87.003	60.533
88.001	59.012
89.004	58.020
89.998	0.805
