Time [s]	Current [nA]
0.000	39.504
1.083	41.547
2.061	39.771
3.062	41.354
4.062	42.096
5.063	42.596
6.066	45.559
7.063	40.818
8.000	46.634
9.059	40.789
10.058	42.638
11.095	43.004
12.063	46.896
13.058	42.006
14.059	46.649
15.061	45.050
16.062	44.151
17.001	45.150
18.057	43.746
19.061	45.314
20.055	45.770
21.059	44.119
22.099	43.457
23.063	44.498
24.066	48.649
25.063	45.377
26.064	44.351
27.055	41.570
28.060	47.358
29.064	48.003
30.084	46.466
31.063	43.305
32.062	45.941
33.063	46.449
34.066	46.954
35.063	42.968
36.060	46.936
37.062	46.003
38.059	45.031
39.064	48.055
40.061	42.824
41.089	45.034
42.056	47.875
43.060	46.609
44.056	47.284
45.064	50.343
46.061	45.331
47.060	49.244
48.060	47.495
49.069	46.477
50.059	43.733
51.090	45.388
52.062	50.612
53.062	45.795
54.063	46.449
55.064	47.195
56.058	45.468
57.062	49.099
58.062	48.195
59.055	47.528
60.063	46.821
61.088	47.995
62.063	49.534
63.065	44.806
64.059	48.989
65.058	47.490
66.062	47.505
67.066	50.692
68.061	45.825
69.064	49.148
70.063	48.844
71.067	47.605
72.085	47.638
73.065	47.546
74.003	48.822
75.070	51.496
76.070	49.395
77.070	48.895
78.062	46.669
79.065	52.039
80.081	48.125
81.065	44.813
82.065	48.195
83.065	48.495
84.068	49.746
85.066	45.231
86.066	48.195
87.063	48.541
88.063	48.395
89.066	51.241
90.084	44.003
91.063	51.374
92.063	49.495
93.065	46.802
94.065	45.995
95.062	42.767
96.057	47.432
97.058	46.049
98.062	45.812
99.063	47.248
100.073	49.599
101.083	47.025
102.063	45.302
103.066	48.051
104.066	48.095
105.066	47.643
106.061	44.719
107.151	37.152
