Time [s]	Current [nA]
0.000	54.704
1.066	56.561
2.081	49.650
3.059	57.765
4.062	58.319
5.056	50.146
6.057	54.740
7.056	54.849
8.059	56.924
9.062	57.322
10.060	49.193
11.059	54.349
12.062	53.733
13.074	51.872
14.061	55.820
15.064	54.985
16.057	48.233
17.056	51.546
18.056	51.295
19.059	53.534
20.063	54.676
21.073	51.777
22.057	47.455
23.052	51.754
24.063	56.473
25.060	49.091
26.064	54.875
27.058	47.983
28.059	52.642
29.054	51.955
30.061	54.215
31.079	53.629
32.064	47.812
33.059	52.960
34.056	52.753
35.061	52.385
36.064	55.428
37.060	48.891
38.064	51.887
39.060	51.099
40.065	50.642
41.063	53.502
42.078	46.399
43.063	46.594
44.001	17.909
45.057	26.822
46.056	37.834
47.065	47.270
48.061	46.782
49.056	52.457
50.058	52.091
51.060	52.190
52.095	52.652
53.063	54.024
54.061	49.193
55.069	52.825
56.057	53.031
57.061	52.086
58.064	54.631
59.061	48.942
60.059	52.901
61.060	52.542
62.059	53.048
63.086	51.212
64.063	55.675
65.061	49.644
66.065	52.684
67.060	52.156
68.059	51.847
69.064	54.223
70.061	48.240
71.079	51.665
72.068	53.887
73.064	52.505
74.052	47.870
75.058	54.124
76.065	55.208
77.060	47.633
78.058	51.798
79.065	55.307
80.061	47.987
81.065	54.377
82.072	51.435
83.065	47.629
84.064	51.446
85.066	51.543
86.062	53.910
87.064	53.188
88.058	46.575
89.004	53.483
90.060	48.101
91.063	52.338
92.110	49.661
93.061	50.468
94.062	51.044
95.062	51.546
96.063	51.344
97.070	30.583
