Time [s]	Current [nA]
0.000	3.533
1.000	47.395
2.000	47.595
3.000	49.695
4.000	50.295
5.001	50.195
6.062	44.953
7.057	48.538
8.000	51.532
9.083	46.440
10.062	50.761
11.059	45.632
12.059	49.195
13.062	49.148
14.062	47.295
15.056	45.615
16.059	51.441
17.062	50.643
18.058	49.694
19.056	48.392
20.084	48.341
21.063	50.046
22.057	51.906
23.061	50.991
24.057	50.497
25.055	50.847
26.062	53.321
27.059	48.039
28.077	51.370
29.066	53.685
30.067	51.943
31.063	52.103
32.059	49.393
33.062	55.428
34.059	47.237
35.057	51.550
36.063	55.760
37.060	48.942
38.116	50.847
39.060	51.690
40.060	53.595
41.056	52.404
42.001	55.233
43.059	50.468
44.062	55.827
45.056	48.636
46.052	53.810
47.056	52.684
48.061	54.422
49.097	52.504
50.051	53.559
51.058	53.421
52.057	52.948
53.057	53.195
54.057	56.494
55.065	56.995
56.056	50.146
57.060	54.477
58.059	55.550
59.089	52.907
60.058	57.373
61.062	56.070
62.055	48.334
63.057	51.891
64.067	57.717
65.060	50.902
66.064	55.672
67.063	48.344
68.061	52.901
69.003	55.939
70.063	49.712
71.058	54.969
72.065	55.307
73.059	48.888
74.053	53.013
75.066	56.911
76.066	48.595
77.066	16.998
78.072	21.966
79.062	31.815
80.060	42.481
81.061	49.545
82.058	52.853
83.066	55.848
84.064	48.993
85.066	52.942
86.065	53.448
87.070	56.014
88.105	54.197
89.061	49.577
90.061	52.195
91.060	50.946
92.061	51.044
93.065	52.385
94.064	53.048
95.058	45.313
96.058	49.395
97.060	49.496
98.063	51.441
99.095	35.655
