Time [s]	Current [nA]
0.000	24.007
0.997	47.036
2.003	48.504
2.997	48.385
3.997	49.295
4.937	45.634
6.000	48.206
6.998	50.396
8.003	50.144
8.999	49.292
9.998	49.745
10.992	45.871
11.997	50.841
13.021	48.237
14.003	50.708
15.003	48.895
16.004	49.395
17.001	47.036
17.998	53.455
18.999	50.744
19.997	51.498
20.999	51.192
21.993	47.883
23.022	50.141
23.997	52.918
25.000	51.441
26.001	51.195
27.000	51.546
27.997	49.343
28.995	53.201
30.001	52.977
31.000	51.947
32.000	51.995
33.005	47.259
34.009	53.580
35.004	56.175
36.002	53.956
36.998	48.590
37.994	52.806
38.992	55.706
39.995	50.543
41.002	52.825
41.996	52.912
42.995	53.748
44.018	53.563
45.001	57.370
45.996	52.208
47.002	55.362
47.997	54.969
48.997	55.394
49.994	56.865
51.001	57.790
51.998	50.747
52.997	55.150
53.996	54.649
54.996	55.694
55.940	56.304
57.002	60.258
57.997	51.050
58.998	55.539
59.997	56.251
60.994	58.971
61.998	53.580
62.940	59.867
64.002	54.138
64.997	56.376
65.997	56.651
66.995	59.914
68.002	59.875
69.003	52.742
69.997	56.735
70.998	57.836
71.997	59.153
73.034	57.661
73.998	54.663
74.997	57.552
75.941	60.227
76.997	54.351
77.997	59.594
79.004	59.875
80.003	53.548
81.003	57.794
81.998	58.185
83.001	59.316
84.021	58.131
85.002	57.792
86.003	59.294
87.003	58.494
88.003	58.594
89.004	62.731
89.994	56.257
91.003	58.765
92.003	58.194
92.994	21.794
