Time [s]	Current [nA]
0.000	15.713
1.002	57.180
2.009	55.109
3.008	54.549
4.009	54.340
5.030	53.426
6.007	52.707
7.004	56.865
8.010	54.567
9.010	54.195
10.010	54.395
11.002	51.205
12.001	56.151
13.020	53.675
14.009	55.404
15.011	53.941
16.009	54.203
17.006	51.449
18.005	56.551
19.010	53.925
20.004	54.019
21.005	53.941
22.002	50.948
23.022	55.093
24.007	55.934
25.010	54.386
26.010	53.895
27.010	53.595
28.003	51.052
29.005	55.384
30.011	54.865
31.010	53.548
32.010	53.795
33.007	50.847
34.022	52.704
35.004	57.326
36.010	54.024
37.010	53.895
38.010	53.595
39.003	51.254
40.004	55.539
41.010	54.965
42.010	53.695
43.010	53.795
44.042	55.130
45.004	50.827
46.008	55.229
47.010	13.172
48.009	19.317
49.008	31.328
50.013	42.682
51.003	45.753
52.010	49.846
53.008	52.901
54.011	54.730
55.021	54.008
56.011	58.580
57.008	51.249
58.009	54.940
59.004	54.869
60.004	54.895
60.946	54.984
62.009	54.275
63.019	54.549
64.011	55.841
65.013	54.540
66.013	54.695
67.009	51.601
68.008	57.452
69.012	54.875
70.012	54.695
71.011	55.150
72.008	51.148
73.047	54.181
74.012	57.922
75.009	55.918
76.004	49.844
77.003	54.849
78.005	56.681
79.009	56.966
80.004	50.347
81.004	54.695
82.004	54.395
83.004	56.494
84.029	53.946
84.947	56.530
86.008	51.599
86.947	58.141
88.009	51.596
89.010	58.336
90.006	51.601
90.947	53.873
92.009	56.397
92.947	52.660
94.037	55.499
94.947	8.241
