Time [s]	Current [nA]
0.000	21.666
1.000	58.194
2.006	58.543
3.025	56.226
4.006	51.473
4.943	59.332
6.000	52.930
6.944	56.668
8.006	60.258
9.000	51.303
10.000	55.694
11.001	55.739
12.000	58.553
13.012	58.393
14.002	51.106
15.000	56.207
16.000	55.450
17.001	55.639
18.006	57.905
19.007	58.835
20.000	51.254
20.997	47.438
22.013	16.927
23.003	23.634
24.049	36.708
24.997	45.354
26.002	50.792
27.000	52.199
28.000	54.994
29.004	57.962
30.010	57.946
31.001	51.660
32.000	55.450
33.001	55.639
33.944	60.970
35.016	53.123
36.001	53.396
37.002	55.739
38.001	55.150
38.999	55.505
40.000	57.736
41.007	57.889
42.003	50.798
43.000	55.461
44.003	54.830
45.041	60.360
45.999	53.231
47.001	52.590
48.004	55.927
48.998	55.528
50.002	54.775
50.999	58.169
52.011	56.911
53.022	56.176
54.002	50.811
55.002	55.294
56.001	55.305
57.005	57.166
58.008	58.319
58.998	50.803
60.010	59.777
61.008	55.405
62.006	52.299
63.009	58.219
64.018	55.396
65.004	50.806
66.003	55.405
67.002	55.250
68.002	57.794
69.011	57.180
70.000	51.461
71.009	60.153
72.011	55.683
73.005	52.510
74.027	56.159
75.001	52.664
76.002	55.994
77.003	55.339
78.004	55.539
79.010	57.251
80.009	58.553
81.005	50.999
82.002	55.461
83.001	55.450
84.011	56.529
85.015	55.927
86.003	53.537
87.005	55.982
88.003	55.405
89.004	55.339
90.001	57.768
91.008	58.088
92.084	33.175
