Time [s]	Current [nA]
0.000	51.392
1.062	53.201
2.062	54.900
3.000	57.783
4.057	50.993
5.057	56.200
6.055	52.104
7.087	59.593
8.061	50.616
9.062	54.545
10.059	54.764
11.062	57.827
12.056	52.012
13.065	55.005
14.060	55.075
15.061	55.045
16.057	52.610
17.091	55.513
18.064	58.171
19.065	55.944
20.061	55.723
21.056	50.854
22.060	57.570
23.061	57.942
24.056	51.055
25.056	55.400
26.056	55.600
27.056	57.400
28.094	54.143
29.054	54.896
30.055	55.744
30.998	58.431
32.054	52.652
33.057	57.029
34.061	58.665
35.060	51.251
36.055	55.980
37.060	55.423
38.079	55.839
39.063	58.943
40.057	52.716
41.060	55.932
42.059	55.455
43.057	55.311
44.052	58.090
45.054	52.994
46.059	56.816
47.059	55.800
48.059	55.800
49.074	54.680
50.062	58.603
51.055	53.071
52.059	56.076
53.059	55.900
54.057	56.513
55.053	54.016
56.055	58.383
57.078	54.741
58.062	57.419
59.058	55.723
60.058	55.700
61.055	52.959
62.057	57.485
63.062	56.816
64.057	55.779
65.058	55.445
66.051	52.769
67.082	55.868
67.996	56.783
69.057	57.493
70.057	55.300
71.057	55.800
72.054	52.758
73.052	57.816
74.061	56.690
75.057	55.522
76.056	55.255
77.053	52.357
78.076	55.034
79.057	59.021
80.056	55.556
81.056	55.100
82.056	55.400
83.057	57.443
84.051	53.018
85.060	56.591
86.060	55.500
87.060	55.700
88.076	56.988
89.053	51.484
90.110	17.219
