Time [s]	Current [nA]
0.000	42.943
1.018	55.992
1.997	55.158
2.998	59.441
4.004	56.958
5.004	57.000
6.003	57.157
7.000	53.561
8.003	59.621
9.021	55.894
9.994	52.415
10.992	56.413
11.992	56.500
12.938	61.945
14.000	56.026
14.995	51.558
15.995	56.200
16.995	56.300
18.003	58.929
19.005	52.295
19.999	57.746
20.995	57.028
21.993	56.513
22.993	56.100
23.997	58.765
24.995	52.405
25.998	57.029
26.997	56.056
27.994	56.168
28.997	58.624
30.018	49.853
30.996	59.100
31.998	57.784
32.937	53.781
33.998	57.776
34.995	52.658
35.999	57.570
36.996	56.469
37.993	55.466
38.991	56.112
40.008	57.522
41.006	56.713
41.995	52.679
42.996	57.143
43.994	54.910
44.995	55.644
45.998	58.325
46.995	52.257
47.993	57.315
48.936	53.234
49.992	57.102
50.936	53.390
51.993	55.535
52.941	60.759
54.000	54.580
54.935	53.690
55.990	53.175
56.935	60.741
57.998	55.880
59.021	54.839
59.992	51.699
60.992	55.600
61.992	55.700
62.990	57.415
64.001	57.270
64.990	51.062
65.997	60.477
66.997	55.600
67.995	52.505
68.997	58.782
70.021	54.395
70.985	52.490
71.996	60.138
72.988	50.605
73.994	57.654
74.996	59.281
75.991	51.357
76.991	56.100
77.985	55.936
78.993	57.639
80.015	56.458
80.997	58.350
81.991	51.207
82.989	55.611
83.990	55.544
84.988	58.216
85.996	58.631
86.992	50.803
87.990	56.112
89.113	36.509
