Time [s]	Current [nA]
0.000	27.883
1.001	58.436
2.001	57.294
3.002	56.538
3.999	55.962
5.046	54.966
5.941	59.435
7.004	54.745
8.002	57.710
8.999	55.461
10.001	55.883
10.996	53.562
12.000	58.261
13.030	55.334
13.997	57.905
14.999	55.883
15.999	56.251
16.998	53.248
18.001	58.120
19.001	57.394
20.001	55.594
20.994	55.986
22.004	58.212
23.000	52.505
24.015	55.758
25.003	57.948
26.001	55.706
27.001	55.294
27.942	56.105
28.999	55.529
30.004	56.014
30.992	56.067
32.001	55.198
33.003	58.377
34.032	49.655
35.006	58.576
36.002	56.621
37.001	55.150
38.007	55.263
38.996	53.382
40.001	57.606
40.999	56.207
42.001	55.483
43.005	55.373
44.013	58.526
45.008	49.995
46.002	58.143
47.003	56.638
48.004	55.339
49.001	54.659
50.001	52.795
50.997	57.625
52.002	55.815
53.002	55.394
54.003	55.639
55.045	54.077
56.002	55.275
57.008	56.958
58.003	56.884
59.004	54.645
60.001	55.366
61.006	58.308
62.001	52.161
62.943	54.671
64.005	58.192
65.003	55.110
66.003	55.600
66.996	52.971
68.001	57.711
68.999	56.713
70.007	55.159
71.001	56.942
71.999	52.605
73.006	57.994
74.034	54.475
75.004	57.423
76.004	55.600
77.000	55.823
77.998	52.806
79.005	58.093
80.000	56.884
81.003	55.334
82.003	55.700
83.005	58.184
84.037	49.806
84.999	59.563
86.002	56.132
87.003	55.944
87.999	55.924
89.004	58.507
89.991	5.978
