Time [s]	Current [nA]
0.000	23.655
1.004	58.765
1.998	51.408
2.998	56.100
3.998	56.100
5.017	54.956
5.998	59.225
6.997	53.053
8.001	56.374
9.002	55.445
9.940	58.955
10.996	54.451
11.998	53.293
13.001	56.231
14.003	55.389
15.001	55.711
16.001	55.600
16.997	58.434
17.997	52.500
19.003	56.163
20.002	55.656
21.003	55.345
21.996	57.905
22.997	52.947
24.023	59.747
25.001	51.431
26.001	55.500
26.997	56.024
28.004	57.994
29.001	52.156
29.997	56.627
30.997	55.800
31.998	56.044
32.996	53.106
34.034	55.588
34.999	58.653
36.005	55.865
37.005	55.400
38.000	55.678
38.994	52.716
39.999	18.905
41.004	21.393
42.004	35.200
43.004	45.200
43.999	48.040
45.019	51.667
45.998	59.346
47.003	56.119
48.003	56.200
49.004	55.944
50.001	53.260
50.997	58.032
52.003	56.759
52.999	55.924
53.998	56.056
55.030	54.748
56.000	54.227
56.996	58.635
58.002	56.163
59.002	56.200
60.003	55.644
60.999	52.912
61.997	58.016
63.024	54.917
64.002	57.464
65.002	55.800
66.002	55.600
66.995	52.971
68.008	57.749
69.002	57.445
69.999	56.670
70.992	51.158
71.995	57.527
72.994	52.653
74.026	58.333
74.998	49.691
75.998	53.000
76.936	55.970
77.998	51.977
78.994	48.795
79.936	51.486
80.997	54.194
81.997	52.900
82.936	52.929
84.013	49.211
84.998	54.822
85.936	50.640
86.993	50.331
87.993	52.600
88.936	53.022
89.991	51.564
90.998	52.929
91.997	52.452
93.052	27.867
