Time [s]	Current [nA]
0.000	49.945
1.001	56.837
1.998	51.148
2.946	58.117
3.994	51.712
4.994	53.895
6.010	51.916
7.016	14.213
7.998	23.114
8.998	34.797
9.997	43.039
10.990	49.542
12.002	53.058
12.999	50.948
13.998	55.750
15.001	54.132
15.998	55.015
17.017	56.128
18.003	50.198
19.003	56.194
20.000	55.260
21.000	53.695
21.999	55.150
22.996	51.449
23.998	56.182
24.995	55.661
25.998	53.887
26.999	54.240
28.028	53.153
28.999	53.960
29.995	56.320
30.999	54.676
31.991	54.632
32.996	53.726
34.002	57.052
34.999	51.048
36.020	54.308
37.006	56.992
38.002	55.015
38.997	49.241
39.999	56.382
41.002	57.123
41.996	49.492
42.997	53.841
43.997	54.295
44.999	55.783
46.010	56.529
47.010	54.895
47.999	49.944
48.999	53.595
50.000	54.041
50.995	55.974
52.002	56.499
52.999	49.443
53.999	53.795
54.997	53.802
55.997	55.650
57.038	52.540
57.998	52.911
59.000	53.987
59.999	53.448
60.998	53.348
61.997	55.950
63.003	56.257
63.998	49.241
64.998	53.595
65.998	53.548
67.008	54.648
68.017	53.513
68.998	52.492
69.997	53.748
70.998	53.341
71.991	53.972
73.000	54.702
74.007	56.002
74.997	49.793
75.998	53.495
76.995	53.656
78.032	57.950
78.998	50.927
80.005	56.102
81.000	49.040
81.998	53.301
83.005	58.286
83.997	51.003
85.005	56.344
86.019	53.598
87.001	49.282
87.999	53.401
89.006	58.485
90.000	51.403
91.005	56.014
92.001	49.393
92.995	53.818
94.059	41.913
