Time [s]	Current [nA]
0.000	49.525
1.023	57.375
1.995	51.127
2.997	55.483
3.935	58.310
4.994	51.836
6.003	56.740
7.001	58.411
7.995	50.800
8.998	54.431
9.997	54.949
11.003	56.953
12.027	55.268
12.994	53.356
13.994	55.094
14.994	54.795
15.999	54.875
16.999	58.094
18.003	56.966
18.995	50.600
19.996	54.840
20.994	55.205
22.031	28.927
22.998	18.302
23.999	27.769
24.999	40.996
25.995	47.834
26.996	51.543
28.004	55.054
29.002	58.511
29.999	50.647
30.996	55.260
31.999	55.129
33.012	54.684
33.998	59.122
34.997	51.747
36.000	55.883
36.996	55.115
37.999	54.531
39.001	57.280
40.003	58.178
41.006	49.646
41.999	56.389
42.996	54.959
44.000	55.074
44.940	55.314
45.992	54.514
46.996	55.572
47.997	54.440
49.000	54.531
50.003	56.724
51.017	57.292
52.020	55.328
53.001	51.167
53.997	55.416
55.000	55.528
55.940	55.905
57.001	54.189
57.939	53.513
59.000	56.356
59.999	54.749
61.007	56.641
62.020	49.452
62.939	56.034
63.938	55.350
65.003	55.957
66.000	55.617
66.997	51.850
68.000	56.525
69.000	56.094
70.005	53.925
71.004	54.749
72.030	54.575
72.999	51.904
74.000	56.738
74.999	55.750
76.001	54.740
76.998	54.458
78.000	51.492
79.000	57.294
80.006	56.058
81.001	54.768
82.005	54.277
83.014	54.504
83.997	52.691
85.001	56.468
86.001	56.151
87.002	54.540
88.002	54.994
89.001	51.747
90.001	56.694
91.029	54.567
92.006	57.722
92.993	5.876
