Time [s]	Current [nA]
0.000	18.172
1.004	57.371
1.999	57.387
3.004	57.413
4.003	59.960
4.998	53.769
6.030	62.209
7.003	52.826
8.003	57.097
9.002	57.452
10.007	59.696
11.003	54.111
12.002	57.051
13.000	57.166
14.000	56.894
14.998	59.313
16.020	59.290
17.003	52.894
18.004	57.137
19.003	57.151
19.999	57.022
21.003	58.560
21.997	55.025
23.004	57.748
24.000	57.123
25.000	56.994
26.001	59.035
27.028	56.372
27.942	59.403
29.004	53.855
30.004	56.894
31.003	57.051
31.993	59.186
33.005	59.242
34.004	52.647
35.000	57.022
36.000	56.894
37.026	55.940
38.004	60.832
38.943	57.289
40.004	54.471
41.003	56.651
42.004	56.738
42.993	59.407
44.005	59.085
45.013	51.582
46.004	57.915
47.004	56.694
48.000	57.022
49.003	59.216
49.998	53.562
51.004	57.549
52.000	56.520
53.001	56.594
54.000	58.653
55.003	53.733
56.020	62.236
57.005	52.178
58.000	56.477
59.000	56.494
60.001	58.536
61.001	53.795
62.005	57.365
63.001	56.276
64.000	56.050
65.000	58.594
66.029	56.943
67.006	53.935
68.006	56.594
69.007	56.038
70.006	56.251
71.003	58.871
71.993	53.530
73.007	56.362
74.003	56.018
75.001	55.906
76.024	57.081
77.014	57.166
78.007	53.066
79.006	55.950
80.007	55.639
81.006	55.450
82.002	58.026
82.999	52.505
84.008	56.189
85.003	55.572
86.002	55.750
87.021	55.048
88.005	54.364
