Time [s]	Current [nA]
0.000	55.055
0.980	50.913
1.979	56.951
2.983	55.273
3.983	54.695
4.988	54.920
5.981	52.011
6.984	56.824
7.989	55.417
8.987	54.804
9.989	54.785
10.997	54.161
11.985	52.626
12.983	56.908
13.988	55.716
14.989	54.740
15.985	54.567
16.980	51.754
17.982	57.380
19.000	54.710
19.989	56.415
20.989	54.994
21.989	54.695
22.980	52.265
23.980	56.694
24.989	55.990
25.990	30.097
26.984	15.793
27.980	26.503
29.002	40.016
29.990	46.250
30.989	46.942
31.989	48.895
32.989	52.895
33.981	50.096
34.979	54.504
35.990	53.955
36.986	53.107
37.984	53.101
38.981	49.845
40.014	51.592
40.985	57.152
41.989	52.983
42.984	52.156
43.985	52.542
44.982	49.343
45.981	55.405
46.990	54.008
47.985	53.060
48.985	53.495
50.004	54.165
50.982	49.177
51.980	54.904
52.986	52.977
53.986	52.595
54.986	52.895
55.983	50.397
56.982	56.551
57.986	54.078
58.986	53.695
59.990	53.481
61.004	52.362
61.987	51.775
62.990	56.026
63.990	54.095
64.990	53.395
65.987	53.609
66.983	50.798
67.985	56.282
69.009	52.827
69.992	55.742
70.993	53.941
71.990	53.856
72.987	50.446
73.983	55.918
74.990	53.917
75.989	53.602
76.987	53.702
77.983	50.397
79.001	54.808
79.987	55.674
80.988	53.941
81.986	53.902
82.987	53.741
83.980	51.153
84.981	55.739
85.989	55.009
86.988	53.848
87.988	54.295
88.981	51.354
90.014	52.947
90.987	58.370
91.987	54.095
92.991	54.178
93.987	54.312
94.979	5.645
