Time [s]	Current [nA]
0.000	31.613
0.994	51.102
1.995	55.938
2.998	57.522
3.992	52.912
4.998	56.456
5.999	55.294
6.999	55.594
7.997	57.409
9.042	53.966
10.001	54.948
10.999	55.405
11.994	55.371
12.998	55.473
14.006	57.038
14.996	53.833
16.000	55.927
17.000	55.394
18.001	55.839
19.027	54.478
20.003	59.420
21.001	52.800
22.002	55.539
22.996	55.729
24.000	55.572
24.997	57.366
25.939	56.317
26.999	53.014
27.997	55.806
28.996	55.750
29.996	55.694
30.992	57.524
32.001	58.270
33.000	51.246
33.938	59.269
34.996	52.547
35.998	57.736
36.995	53.254
38.013	55.201
39.001	57.079
40.001	55.694
40.997	56.018
41.996	53.949
43.001	57.805
44.001	56.994
44.999	55.505
45.999	55.750
46.997	52.700
48.013	55.802
49.005	58.764
50.001	57.022
50.996	50.950
52.001	55.616
53.000	57.552
53.995	52.960
54.996	56.238
55.997	55.494
57.002	55.517
58.037	55.164
59.005	58.569
59.998	52.663
61.002	55.373
62.002	55.294
63.003	55.239
64.000	58.068
64.995	51.955
66.003	55.605
67.002	55.250
68.002	55.094
69.018	54.522
70.005	58.758
70.997	52.313
72.002	55.218
73.002	55.095
74.002	55.194
74.995	57.295
75.998	52.190
77.005	55.208
78.003	55.505
79.003	55.094
80.003	54.995
81.001	57.810
81.996	51.452
83.003	55.506
84.002	54.949
84.997	54.768
86.001	56.824
87.016	57.334
88.005	50.248
89.003	55.105
90.079	42.003
