Time [s]	Current [nA]
0.000	24.331
1.003	58.120
2.000	52.252
3.009	56.585
4.008	55.350
5.012	55.029
6.020	54.856
7.004	53.247
7.996	57.252
9.006	56.034
10.007	55.139
11.002	55.070
11.998	51.902
13.000	57.280
14.024	54.291
15.007	56.919
16.007	54.795
17.006	55.050
18.004	51.999
18.942	55.645
20.006	57.325
20.942	52.772
22.001	56.652
22.942	55.149
24.019	53.291
25.009	56.819
26.007	55.305
27.009	54.486
27.943	52.885
28.998	53.928
30.005	56.697
31.009	56.468
32.006	54.759
33.002	54.814
33.992	52.015
35.031	53.078
36.009	59.503
37.009	54.994
38.009	54.895
39.008	53.048
39.992	49.385
41.001	52.522
42.002	52.842
43.001	52.347
44.001	52.195
45.035	52.463
46.001	50.098
47.005	53.979
48.009	53.082
49.008	52.948
50.005	53.756
51.001	50.397
52.004	56.026
53.000	48.690
54.002	53.188
55.004	52.590
56.015	52.371
57.004	57.123
58.002	49.895
59.005	53.933
60.001	53.208
61.002	53.941
62.005	55.727
62.999	51.303
64.028	58.012
65.006	49.227
66.008	53.488
67.005	53.656
68.005	55.594
69.002	50.948
70.006	54.775
71.006	53.695
72.002	54.111
73.002	56.394
74.025	55.615
75.007	49.027
76.007	54.295
77.007	53.895
78.006	45.741
79.006	14.399
79.999	20.743
81.002	33.696
82.006	42.028
83.002	48.790
83.944	49.040
85.029	55.622
86.007	53.062
87.007	54.795
88.005	55.906
88.999	55.326
90.007	56.840
91.000	52.261
92.004	55.373
93.011	54.314
94.011	54.595
95.027	15.072
