Time [s]	Current [nA]
0.000	35.184
0.997	53.355
2.001	59.755
2.997	51.200
3.995	56.407
4.995	56.294
6.000	58.261
7.002	59.275
8.021	56.226
9.002	51.779
9.997	56.276
10.998	55.739
11.994	58.829
13.001	58.783
13.996	51.653
14.997	55.839
15.994	56.119
16.998	57.464
18.022	57.611
18.998	53.171
19.997	56.651
20.998	55.938
21.990	56.547
22.995	58.004
24.002	58.981
24.997	51.352
25.996	55.806
26.995	56.151
28.007	57.504
29.027	55.583
29.940	58.921
31.003	53.522
31.996	55.986
32.995	55.750
34.001	57.946
35.003	59.235
35.998	51.553
36.996	55.906
37.996	56.194
39.030	54.733
40.002	60.796
40.995	53.368
41.997	56.382
42.998	56.338
43.994	56.019
45.001	57.889
46.005	59.216
47.027	56.159
48.004	51.991
48.999	57.180
49.941	54.984
51.005	60.238
52.000	52.960
52.999	56.651
53.997	56.006
54.998	56.138
56.005	58.543
57.002	52.753
58.012	55.737
59.003	57.310
60.002	55.250
61.000	55.906
61.998	53.301
62.998	58.094
64.002	56.369
65.001	55.250
65.996	56.031
67.004	57.931
68.031	50.336
68.999	58.982
70.002	56.325
70.999	55.260
71.999	55.794
73.003	58.261
74.001	52.700
74.942	54.830
76.001	57.272
77.004	55.827
78.010	58.245
79.032	55.767
80.001	53.865
81.004	55.927
82.001	55.461
83.001	55.294
83.999	53.101
84.999	58.094
86.005	56.412
87.000	55.874
88.002	54.785
89.043	39.381
