Time [s]	Current [nA]
0.000	58.529
1.062	58.192
2.055	53.676
3.058	58.624
4.058	58.400
5.061	60.718
6.075	57.396
7.061	53.043
8.061	54.900
9.061	54.200
10.061	54.100
11.064	57.129
12.061	51.856
13.058	55.767
14.059	55.145
15.054	55.176
16.088	54.449
17.061	58.068
18.058	51.354
19.058	55.300
20.054	54.819
21.057	54.935
22.060	57.627
23.056	52.410
24.062	55.268
25.060	56.313
26.059	55.155
27.067	54.861
28.060	53.172
29.063	58.225
30.060	57.071
31.060	55.900
32.060	55.900
33.057	52.658
34.062	59.104
35.068	57.058
35.998	55.161
37.061	52.587
38.057	56.325
39.056	58.258
39.997	57.279
41.059	53.955
41.997	59.808
43.059	52.825
44.059	58.300
45.075	58.957
46.059	52.033
47.058	56.857
48.055	57.172
49.054	56.857
50.059	59.303
51.056	53.561
52.058	57.585
53.060	56.786
54.055	57.387
55.055	54.100
56.089	55.416
57.061	61.626
58.060	57.257
59.061	56.643
60.060	56.957
61.059	53.453
62.061	59.681
63.058	58.676
64.050	52.016
65.051	57.243
66.075	57.129
67.051	60.143
68.057	60.040
69.054	52.257
70.049	57.387
71.054	57.413
72.052	59.018
73.052	54.500
74.053	57.243
75.053	57.200
76.057	57.072
77.075	56.876
78.059	61.789
79.057	54.309
80.053	57.932
81.053	57.600
82.052	57.858
83.049	54.463
84.050	59.740
85.064	56.213
86.061	58.776
87.060	57.057
88.197	36.675
