Time [s]	Current [nA]
0.000	42.843
0.976	54.098
1.966	47.778
2.973	50.943
3.972	50.951
4.972	50.600
5.976	52.988
6.973	47.844
7.969	51.305
8.970	50.749
9.967	50.552
10.987	49.706
11.972	49.543
12.965	52.064
13.966	50.250
14.965	49.850
15.969	50.100
16.976	44.985
17.975	11.311
18.981	18.290
19.975	29.678
20.975	37.700
21.974	43.944
22.971	43.430
23.969	52.004
24.974	51.642
25.975	51.149
26.974	50.951
27.971	48.144
29.008	50.723
29.909	52.830
30.971	53.766
31.971	50.800
32.971	46.800
33.965	52.817
34.972	52.830
35.970	46.794
36.971	50.949
37.970	50.651
38.967	52.658
39.984	50.049
40.970	48.783
41.970	50.900
42.970	50.600
43.970	50.500
44.974	52.590
45.971	47.944
46.966	51.256
47.968	50.898
48.964	50.602
50.007	49.089
50.964	49.739
51.967	51.745
52.973	51.590
53.973	50.200
54.973	50.300
55.959	47.363
56.966	51.539
57.963	51.254
58.968	49.950
59.971	50.050
60.982	50.148
61.969	49.037
62.964	51.960
63.972	51.190
64.972	50.100
65.972	50.600
66.969	47.643
67.967	52.505
68.974	50.248
69.969	51.457
70.969	50.100
71.961	45.565
72.965	51.693
73.967	52.994
74.968	45.954
75.967	49.950
76.968	50.050
77.971	52.443
78.981	46.040
79.968	52.381
80.965	50.953
81.961	50.301
82.973	49.802
83.964	48.638
84.967	51.944
85.972	51.244
86.968	51.406
87.960	45.565
88.973	51.728
89.992	50.343
90.968	49.795
91.964	51.004
92.964	50.600
93.960	50.703
94.971	51.929
95.963	48.286
96.962	50.951
97.959	50.351
98.961	50.299
100.001	48.942
101.088	36.155
