Time [s]	Current [nA]
0.000	35.976
1.000	53.695
2.058	52.925
3.061	57.123
4.078	54.272
5.063	49.893
6.059	55.115
7.058	54.549
8.062	56.568
9.059	50.847
10.054	55.070
11.057	53.733
12.059	53.687
13.054	51.653
14.066	54.738
15.069	54.585
16.062	55.281
17.062	52.995
18.057	53.562
19.062	55.915
20.059	50.647
21.062	54.132
22.066	54.477
23.060	53.616
24.056	49.995
25.085	52.329
26.059	57.181
27.061	53.388
28.062	53.341
29.062	53.395
30.058	50.798
31.062	55.871
32.062	53.895
33.062	52.895
34.060	52.901
35.092	53.244
36.058	50.099
37.061	52.936
38.063	51.791
39.062	51.346
40.002	49.357
41.064	55.079
42.061	48.641
43.059	52.299
44.059	51.595
45.065	50.841
46.068	51.241
47.003	52.722
48.003	53.795
49.060	50.232
50.060	50.995
51.003	54.289
52.064	51.644
53.062	48.793
54.068	52.480
55.063	53.214
56.058	51.854
57.059	52.342
58.003	52.749
59.003	54.695
60.003	48.895
61.003	52.495
62.003	52.695
63.003	54.395
64.075	50.648
65.061	54.614
66.063	53.388
67.053	53.227
68.063	51.876
69.066	56.226
70.061	50.146
71.003	51.693
72.054	54.704
73.003	55.527
74.065	52.443
75.003	51.168
76.064	53.391
77.070	53.772
78.066	53.709
79.059	48.233
80.059	55.694
81.067	55.451
82.061	48.687
83.062	52.842
84.061	52.948
85.085	52.781
86.071	57.094
87.063	50.902
88.063	54.195
89.060	52.954
90.054	53.415
91.066	44.857
92.063	13.539
93.064	22.675
94.063	33.931
95.063	40.937
96.084	42.503
