Time [s]	Current [nA]
0.000	28.214
1.004	52.590
2.006	52.595
2.945	50.905
3.944	54.254
5.007	51.082
6.004	53.360
7.002	53.507
8.005	53.141
9.002	50.150
10.003	54.945
11.009	50.795
12.010	48.452
13.009	47.548
14.041	47.578
15.005	46.473
16.004	49.850
17.008	47.709
18.009	47.552
19.008	47.748
20.005	45.537
21.005	50.500
22.009	48.506
23.008	46.547
24.008	47.300
24.943	46.631
25.994	47.479
26.998	50.398
28.004	49.205
29.004	48.400
30.004	48.300
30.996	46.573
32.016	49.314
33.010	50.905
34.008	49.499
35.007	47.648
36.004	48.746
37.001	46.038
38.004	50.349
39.004	44.700
40.004	48.100
41.004	48.100
42.003	50.851
43.031	47.763
44.003	47.325
45.004	49.351
46.003	49.349
47.003	49.900
48.002	51.451
48.992	46.667
50.000	50.000
51.000	49.500
52.004	50.000
53.033	50.146
54.007	53.593
55.000	47.130
56.002	50.798
57.001	50.851
58.007	49.602
58.999	47.480
59.999	52.600
61.007	51.190
62.003	50.703
63.005	51.098
64.025	50.588
65.003	48.875
66.007	53.287
67.002	52.362
67.999	46.640
68.999	51.300
70.002	51.844
70.996	47.384
72.007	49.951
73.003	51.305
74.002	50.751
75.002	50.800
76.000	52.605
76.996	47.289
78.002	50.994
79.001	50.951
80.002	50.350
81.005	53.340
82.028	51.515
82.998	47.629
84.006	52.778
85.000	51.207
86.001	50.949
86.996	48.040
88.002	52.485
89.005	51.844
89.940	49.412
91.005	52.582
92.017	46.443
93.001	53.557
94.000	53.654
95.004	51.096
96.004	51.200
97.000	51.104
97.994	48.290
98.998	53.088
100.075	30.919
