Time [s]	Current [nA]
0.000	27.148
0.992	49.899
1.934	56.051
2.934	52.400
3.996	49.341
5.000	55.478
6.017	47.198
6.993	55.225
7.999	53.976
8.999	52.100
9.998	52.452
10.991	49.950
11.993	53.992
12.999	53.181
13.998	52.352
14.999	52.348
15.999	49.000
17.012	52.419
17.999	55.826
18.995	53.213
19.987	46.976
20.987	52.400
21.991	53.486
22.995	54.880
23.991	47.088
24.991	51.800
25.990	52.152
27.017	51.314
27.998	55.759
28.996	49.098
29.995	52.052
30.991	52.108
31.988	52.859
32.995	54.022
33.990	49.648
35.018	50.584
35.997	53.422
36.997	52.100
37.997	51.900
38.994	49.348
39.994	54.100
40.997	52.044
41.997	52.200
42.998	52.148
43.995	49.248
44.992	54.564
46.020	50.778
46.998	54.192
47.998	51.700
48.932	49.893
49.994	50.847
50.996	53.892
51.994	53.307
52.985	46.922
53.993	56.845
54.989	49.398
56.013	52.148
56.988	50.872
57.931	55.567
58.993	48.588
59.993	52.600
60.996	54.836
61.984	50.000
62.993	53.221
63.993	52.400
64.990	52.959
66.018	53.794
66.988	49.381
67.990	54.192
68.991	53.746
69.994	52.343
70.996	52.495
71.987	49.647
72.988	54.046
73.996	52.976
74.995	11.812
75.995	14.900
77.021	25.828
77.992	33.368
78.995	44.766
79.992	46.439
80.992	49.400
81.992	53.400
82.989	50.150
83.992	56.530
85.007	52.611
85.991	49.187
86.991	53.200
87.989	54.008
88.991	56.687
89.990	50.450
90.994	54.482
91.994	52.800
92.994	53.200
93.991	50.251
94.991	55.200
96.015	52.637
96.994	55.260
97.994	47.800
