Time [s]	Current [nA]
0.000	1.794
1.005	56.512
2.008	58.419
2.999	50.550
3.946	57.967
5.006	52.119
6.027	54.843
7.012	59.892
8.009	52.051
9.007	55.606
10.007	55.194
11.003	55.215
12.009	57.549
13.001	52.213
14.022	54.255
15.012	57.224
16.009	55.461
17.002	49.743
18.006	56.767
19.009	58.020
20.009	50.195
21.009	54.995
22.009	55.294
23.011	57.779
23.947	54.695
25.007	52.686
26.007	55.894
27.009	54.685
28.014	55.019
29.002	51.817
30.004	56.681
31.003	55.150
32.005	54.985
33.008	54.232
34.010	57.180
35.028	48.864
36.007	58.115
37.013	30.911
38.013	18.698
39.013	31.897
40.009	39.052
41.007	50.296
42.008	52.043
43.010	52.190
44.005	54.869
45.036	54.655
46.011	57.738
47.008	51.750
48.003	55.874
48.948	52.693
50.003	56.487
51.010	57.492
52.007	51.750
53.008	55.639
53.948	52.867
55.003	56.392
56.031	53.451
57.006	53.943
58.008	56.881
58.949	54.192
60.010	56.074
61.008	54.804
62.011	57.223
63.007	51.702
63.952	58.407
65.010	52.880
66.002	54.228
67.004	54.286
68.011	57.492
69.007	51.601
70.010	55.528
71.001	54.989
72.003	54.186
73.011	57.137
74.021	50.787
75.018	56.520
76.015	55.661
77.011	55.416
78.000	49.944
79.008	55.947
80.011	57.721
81.002	50.146
82.005	53.833
83.007	54.486
84.007	56.394
85.032	54.194
86.006	52.254
87.008	54.885
88.007	53.748
89.008	54.041
90.006	56.708
91.012	56.853
92.006	49.492
93.003	54.157
94.003	20.498
