Time [s]	Current [nA]
0.000	8.448
1.000	39.196
2.003	50.543
2.936	53.157
3.986	52.090
4.997	54.198
5.992	56.031
7.013	54.255
7.993	54.178
8.995	57.280
9.996	56.638
10.997	55.439
12.003	55.561
12.993	52.419
13.997	57.464
15.012	54.630
16.003	56.806
16.938	53.257
18.004	57.030
18.993	52.270
19.994	57.137
20.997	56.126
22.003	54.965
23.003	55.095
23.996	51.959
25.017	55.975
26.004	57.644
27.000	56.520
27.994	50.498
28.994	55.094
29.996	56.681
31.001	57.805
31.938	53.677
32.994	51.889
33.996	54.885
34.995	56.951
36.037	53.501
37.002	54.606
38.000	55.205
38.996	55.316
39.997	55.139
40.938	55.361
41.997	54.008
42.996	56.050
43.997	54.740
45.003	54.766
46.025	56.312
47.001	51.019
48.005	57.166
49.000	55.874
49.994	48.184
50.996	52.889
51.996	54.995
53.001	54.820
53.996	48.136
54.996	53.395
55.997	53.395
57.022	52.092
58.003	57.385
58.994	50.449
60.002	53.566
61.001	53.548
61.939	56.711
63.005	52.809
63.999	51.202
65.014	52.756
66.006	55.337
67.005	53.848
68.002	54.558
68.998	50.698
70.001	57.123
70.995	49.391
71.995	53.395
72.939	56.986
73.998	52.875
75.031	53.386
76.002	56.637
77.002	49.795
78.002	54.395
79.002	53.995
80.006	56.966
81.002	51.200
82.000	55.005
82.999	54.149
83.998	54.049
85.010	56.770
86.014	48.800
87.006	57.958
88.006	55.194
89.004	55.105
89.998	49.291
91.002	56.369
92.002	57.294
92.993	15.538
