Time [s]	Current [nA]
0.000	11.179
0.984	51.621
1.984	55.994
2.985	55.839
3.987	58.278
4.984	52.653
5.982	56.263
6.978	56.520
7.981	55.528
8.984	58.120
10.008	50.386
10.976	58.259
11.982	55.362
12.980	55.305
13.977	55.461
14.987	57.024
15.985	52.252
16.982	56.263
17.977	55.874
18.981	55.373
19.985	58.162
21.015	49.218
21.988	60.323
22.988	56.194
23.984	56.219
24.984	55.394
25.982	51.951
26.985	58.718
27.981	50.798
28.985	55.572
29.986	55.938
31.017	55.184
31.984	60.284
32.981	52.252
33.985	56.070
34.982	55.862
35.984	55.339
36.980	52.404
37.982	57.380
38.985	56.126
39.983	55.505
40.987	55.373
41.999	55.232
42.982	53.708
43.981	57.652
44.982	55.938
45.984	55.539
46.985	55.439
47.982	52.853
48.977	57.683
49.998	54.157
50.990	57.454
51.988	56.006
52.990	56.082
53.983	52.361
54.985	58.178
55.980	50.699
56.925	58.513
57.981	51.983
58.983	57.180
59.995	57.801
60.991	56.119
61.986	50.849
62.986	55.694
63.986	55.394
64.989	58.519
65.984	52.812
66.987	56.126
67.984	55.862
68.985	55.339
69.982	52.352
71.006	53.901
71.983	58.234
72.986	55.927
73.985	55.250
74.991	55.959
75.926	55.883
76.980	53.885
77.987	55.109
78.987	55.094
79.974	55.516
81.002	56.317
81.983	50.658
82.979	57.826
83.982	55.029
84.986	54.676
85.979	55.740
86.926	54.799
87.981	54.971
88.982	55.239
89.982	54.895
90.979	16.047
