Time [s]	Current [nA]
0.000	24.744
1.007	57.095
2.004	49.945
3.008	54.078
3.946	58.203
5.036	50.225
6.012	58.088
7.009	51.550
8.003	55.528
9.006	53.833
10.006	54.095
11.012	56.257
12.008	50.899
13.013	54.522
14.007	55.628
15.008	54.195
16.006	53.902
17.009	55.927
17.947	53.833
19.005	52.452
20.002	53.555
21.006	53.580
22.009	57.322
23.006	51.148
24.021	54.083
25.012	57.166
26.011	55.250
27.010	54.449
28.007	51.148
29.014	56.995
29.996	50.708
31.009	58.928
32.003	55.326
32.947	53.914
34.033	51.744
35.014	57.239
36.010	50.497
37.009	54.749
38.007	54.804
38.948	55.574
40.007	53.630
40.948	53.873
41.948	54.195
42.948	55.094
44.009	52.210
45.031	60.425
46.007	52.556
47.014	55.506
48.011	55.160
49.010	54.549
50.006	51.400
51.010	57.564
52.005	49.844
53.006	54.540
54.002	54.111
55.048	59.037
55.949	50.494
57.006	53.637
58.011	54.721
59.010	54.749
60.007	54.959
61.016	56.981
62.010	51.202
63.025	53.985
64.012	55.111
65.008	54.668
66.008	54.895
67.015	56.499
68.008	51.656
69.009	55.339
70.007	54.203
71.005	54.303
72.012	56.697
73.008	50.999
74.025	53.879
75.015	56.617
76.015	54.295
77.016	54.140
78.013	51.850
79.020	37.633
80.015	18.893
81.000	27.713
82.011	44.110
83.008	44.629
84.029	52.101
85.012	54.373
86.007	49.643
87.004	53.756
88.005	53.841
89.005	56.594
90.012	56.400
91.008	49.393
92.006	53.902
93.012	58.742
94.227	24.442
