Time [s]	Current [nA]
0.000	9.021
0.997	49.143
1.997	54.995
2.993	47.686
3.994	52.143
4.994	54.295
5.936	56.742
6.994	53.681
7.993	50.445
8.994	53.142
9.936	57.107
10.990	51.133
11.994	56.369
12.997	58.519
14.018	56.018
14.997	51.680
15.992	55.930
16.993	61.732
17.994	52.442
18.991	53.756
19.990	56.451
20.991	55.639
21.991	55.594
22.995	57.763
23.998	58.917
25.013	56.010
25.998	51.467
26.995	54.859
27.996	54.440
28.994	58.010
29.991	52.954
30.995	55.273
31.994	55.250
32.993	55.650
33.995	57.978
35.021	56.287
35.995	53.075
36.995	56.294
37.992	55.762
38.996	55.174
39.992	58.528
40.998	58.245
41.995	51.148
42.994	55.750
43.995	55.039
45.000	57.308
46.017	55.309
46.988	54.886
47.994	55.462
48.994	55.394
49.987	55.886
50.996	56.981
51.998	58.677
52.994	50.899
53.995	55.239
54.993	55.205
56.027	54.206
56.999	60.282
58.004	57.109
59.000	50.899
59.996	55.416
60.995	55.350
61.995	57.494
62.999	58.062
64.000	50.644
64.994	55.729
65.995	55.094
67.004	60.153
67.996	52.716
69.000	58.261
69.996	50.999
70.995	55.350
71.992	55.461
72.996	57.066
74.000	58.659
75.031	54.849
75.939	55.721
77.001	52.631
78.001	56.494
79.001	58.594
79.993	52.918
80.997	56.170
81.997	55.094
82.992	55.472
83.999	57.988
85.027	50.433
85.999	59.150
87.005	55.859
87.999	55.729
88.998	54.849
90.000	58.078
91.002	20.856
