Time [s]	Current [nA]
0.000	1.990
0.984	53.755
1.989	56.711
2.992	56.026
3.989	54.759
4.930	52.598
5.986	53.454
6.996	56.034
7.987	55.696
9.002	54.576
9.992	55.651
10.990	54.003
11.986	52.204
12.987	56.937
13.991	55.373
14.988	54.157
15.988	54.449
16.993	57.407
18.041	54.670
18.990	52.050
19.989	55.150
20.992	54.032
21.991	55.150
22.983	51.910
23.990	55.804
24.989	55.950
25.990	54.495
26.992	54.486
28.004	50.291
28.992	57.181
29.997	57.208
30.986	50.450
31.989	54.232
32.989	54.695
33.988	56.551
34.994	56.853
35.993	49.995
36.932	57.396
37.987	51.275
39.029	58.727
39.997	52.681
40.990	51.455
41.994	54.178
42.990	54.011
43.987	53.956
44.989	55.982
45.995	57.009
47.009	54.038
47.994	49.640
48.988	53.918
49.990	53.488
50.987	56.664
51.994	56.400
52.989	49.543
53.983	54.119
54.987	53.680
55.992	55.572
57.004	57.109
57.991	49.337
58.995	54.078
59.996	21.277
60.990	20.119
61.987	33.999
62.994	43.789
63.994	44.496
64.994	50.795
65.994	52.247
66.995	56.438
68.026	52.177
68.984	53.648
69.991	54.215
70.988	54.057
71.984	54.111
72.990	55.760
73.994	56.668
74.988	49.593
75.983	54.119
76.990	53.818
78.028	53.270
78.990	57.271
79.995	56.611
80.988	49.643
81.986	54.203
82.991	53.626
83.990	56.451
84.995	56.711
85.992	49.593
86.993	54.140
87.991	54.303
89.027	58.295
89.986	51.924
90.996	56.232
91.992	49.493
92.991	54.249
93.990	53.848
94.987	11.032
