Time [s]	Current [nA]
0.000	16.785
0.984	51.418
1.972	45.542
2.975	49.447
3.980	50.940
4.975	48.035
5.981	49.746
6.980	49.044
7.980	49.195
8.978	50.797
10.023	48.033
10.979	48.426
11.980	49.446
12.980	48.595
13.979	49.044
14.980	50.844
15.981	46.695
16.981	49.695
17.981	49.195
18.981	49.295
19.998	50.142
20.990	50.600
21.980	47.369
22.984	49.796
23.980	49.091
24.978	49.394
25.981	50.694
26.984	52.039
27.981	45.532
28.981	49.095
29.973	49.289
31.000	48.486
31.982	53.253
32.979	46.936
33.980	49.945
34.981	49.545
35.982	49.495
36.981	51.446
37.979	47.190
39.001	53.908
39.985	45.930
40.980	50.548
41.981	50.544
42.980	47.243
43.984	51.489
44.983	50.245
45.982	49.294
46.983	49.545
47.987	51.290
48.924	49.088
49.983	48.248
50.985	49.696
51.982	49.143
52.983	49.046
53.978	46.528
54.981	51.042
55.983	50.445
56.983	49.195
57.983	49.495
58.924	48.242
59.996	46.824
60.924	50.641
61.989	51.075
62.983	48.888
63.983	49.095
64.978	46.528
65.984	50.343
66.991	50.442
67.983	48.886
68.983	48.795
70.006	48.578
70.983	46.976
71.982	51.346
72.984	49.296
73.982	48.693
74.985	48.450
75.981	46.729
76.984	50.743
78.010	48.533
78.925	49.066
79.985	50.089
80.983	48.993
81.978	46.428
82.984	50.393
83.986	50.095
84.985	49.344
85.986	48.995
86.982	46.280
87.985	50.643
89.010	48.385
89.990	51.219
90.990	48.895
91.990	48.995
92.986	46.582
93.991	51.139
94.991	49.195
95.987	49.141
96.986	49.244
97.983	46.134
99.010	48.778
99.986	51.737
100.987	49.845
101.980	13.896
