Time [s]	Current [nA]
0.000	45.717
1.055	48.057
2.000	50.688
3.058	49.338
4.060	51.497
5.058	49.299
6.053	50.151
7.080	49.757
8.054	48.255
9.049	51.960
10.056	49.851
11.056	50.100
12.050	50.201
12.999	50.053
14.054	49.858
15.081	49.172
16.064	51.577
17.059	49.548
18.056	49.549
19.057	47.652
20.048	52.573
21.057	49.653
22.055	49.800
23.054	49.850
24.060	52.087
25.068	46.230
26.060	51.109
27.057	50.251
28.056	49.046
29.054	49.594
30.060	51.784
31.056	46.782
32.055	50.145
33.056	49.595
34.061	49.249
35.061	52.095
36.081	44.799
37.056	52.610
38.059	49.945
39.053	49.090
40.053	49.295
41.060	51.534
42.056	46.682
43.052	50.146
44.056	49.298
45.056	49.595
46.091	49.657
47.053	46.773
48.054	51.643
49.067	49.057
50.060	49.844
51.059	49.344
52.055	47.284
53.000	54.444
54.000	45.495
55.058	50.940
56.056	49.594
57.095	47.637
58.057	48.644
59.054	51.650
60.056	49.396
61.054	49.394
61.999	47.614
63.000	51.295
64.060	48.957
65.075	49.355
66.061	50.908
67.061	48.895
68.061	49.495
69.055	47.380
70.059	50.991
71.057	50.496
72.064	49.151
73.000	47.910
74.000	51.295
75.000	51.695
76.000	45.995
77.000	50.095
78.000	49.495
79.000	49.595
80.063	53.240
81.000	49.942
82.057	47.677
83.056	49.594
84.056	49.895
85.063	51.931
86.106	49.755
87.056	47.364
88.057	49.945
89.058	49.545
90.064	49.299
91.055	47.826
92.059	51.091
93.060	50.995
94.059	49.445
95.059	49.795
96.093	49.898
97.063	51.747
98.057	47.380
99.069	49.501
100.208	36.168
