Time [s]	Current [nA]
0.000	41.600
1.000	45.500
2.061	49.953
3.000	46.752
4.000	42.800
5.000	45.600
6.000	45.300
7.000	47.700
8.079	43.466
9.000	45.928
10.000	44.600
11.000	44.200
12.000	44.600
13.000	46.200
13.999	43.443
15.057	43.478
16.057	44.700
17.057	44.700
17.999	48.408
18.999	40.900
20.066	46.111
20.999	41.801
21.999	42.500
22.999	43.700
23.999	40.500
25.062	42.803
25.999	45.891
26.999	42.600
27.999	42.900
28.999	42.700
29.999	40.000
30.999	43.800
32.055	41.383
32.998	41.251
33.998	46.600
35.060	41.149
35.998	40.192
36.998	43.700
37.998	40.000
38.998	41.700
39.998	40.800
40.998	41.000
41.998	42.800
42.998	38.000
43.998	41.100
44.998	40.900
45.998	41.900
46.998	40.800
47.998	38.500
48.997	42.743
49.997	42.200
50.997	40.100
52.055	38.469
52.997	39.384
53.997	39.300
54.997	36.700
55.997	37.800
56.997	38.500
57.997	38.000
58.997	41.200
59.997	41.100
60.997	39.900
61.997	39.100
62.997	36.400
63.997	40.300
64.997	37.900
65.997	37.800
66.996	38.038
67.996	37.200
68.996	37.200
69.996	41.500
71.159	22.786
