Time [s]	Current [nA]
0.000	1.575
0.920	2.282
1.920	2.100
2.920	2.300
3.920	2.500
4.920	2.500
5.921	2.400
6.921	2.600
7.921	2.400
8.921	2.100
9.921	2.500
10.921	1.900
11.921	2.000
12.921	2.100
13.921	2.000
14.921	2.300
15.922	2.400
16.921	2.402
18.004	2.677
18.921	2.399
19.921	2.700
20.987	2.626
21.921	2.676
22.991	2.523
23.921	2.473
24.981	2.641
25.922	2.447
26.922	2.600
27.922	2.700
28.922	2.300
29.922	2.500
30.922	2.300
31.922	2.300
32.922	0.800
35.992	6.168
36.984	11.995
37.922	29.421
38.922	27.697
39.922	25.097
40.922	26.997
41.922	22.798
42.922	29.697
43.922	26.997
44.922	25.197
45.985	27.963
46.923	25.584
47.923	27.297
48.923	26.197
49.923	26.197
50.923	24.498
51.922	24.822
52.922	25.997
53.987	26.852
54.988	26.071
55.985	23.893
56.923	24.944
57.923	26.597
58.923	25.597
59.923	25.697
60.923	25.597
61.923	24.198
62.923	26.797
63.923	26.897
64.923	26.397
65.924	25.897
66.924	24.098
67.924	25.397
68.981	25.068
69.923	27.704
70.985	24.197
72.126	16.738
