Time [s]	Current [nA]
0.000	32.469
0.998	50.501
1.944	57.717
3.002	50.945
4.005	52.542
5.000	52.261
5.999	52.352
6.995	49.498
8.002	54.121
9.000	53.407
9.999	52.052
10.998	52.052
11.995	49.348
13.031	50.772
14.004	56.423
15.004	51.800
16.001	51.555
17.000	52.052
17.994	48.994
18.997	53.340
20.000	52.941
21.001	51.449
22.001	52.100
23.019	53.143
24.003	47.866
24.997	53.622
26.003	52.684
26.938	49.840
27.938	51.500
28.938	53.400
29.938	49.600
30.938	51.900
31.938	51.900
32.938	51.600
34.035	51.686
34.938	55.039
35.938	49.000
36.938	52.500
37.938	51.600
38.938	52.000
39.938	53.600
40.938	49.100
41.938	52.300
42.938	52.500
44.002	53.383
45.003	51.848
45.999	48.996
46.994	53.869
48.003	52.428
49.003	51.700
50.003	51.700
50.997	49.799
52.030	53.437
52.994	48.963
53.999	51.642
54.999	51.600
56.000	51.548
56.998	54.309
57.993	48.442
58.994	52.547
60.000	51.690
60.999	51.952
61.997	54.108
63.017	50.882
63.999	50.407
64.998	51.652
65.999	51.748
66.998	51.852
67.994	54.217
68.992	49.299
69.936	55.720
70.999	48.918
71.994	52.060
73.013	52.601
73.992	49.847
75.002	53.564
75.998	52.711
76.998	51.800
77.998	51.700
78.990	48.387
79.995	53.632
81.016	51.322
82.001	53.604
83.004	51.645
84.000	40.361
84.997	14.544
85.990	24.975
86.996	34.592
87.995	41.438
88.997	46.403
89.991	45.468
91.000	51.729
92.010	52.470
93.002	53.173
94.007	51.736
95.001	52.107
95.998	49.042
96.996	54.303
98.000	52.086
98.988	0.708
