Time [s]	Current [nA]
0.000	27.716
1.003	50.743
1.996	43.903
2.996	47.695
3.941	50.894
5.003	47.498
6.046	49.372
7.003	45.137
8.002	47.743
9.006	47.605
10.003	47.738
10.942	46.854
12.003	44.953
13.008	47.756
14.008	47.295
15.008	47.843
15.943	47.696
17.027	43.723
18.008	51.269
19.008	48.995
20.004	48.590
20.995	43.285
22.004	48.360
23.008	50.393
24.007	48.344
24.942	46.199
26.006	49.666
27.023	42.670
28.002	48.718
29.005	51.141
30.000	44.619
31.000	47.895
32.006	47.709
33.003	50.647
34.001	45.186
35.008	48.107
36.006	47.590
37.009	48.350
37.943	52.136
39.005	47.924
40.002	44.128
41.002	47.095
42.001	46.242
43.001	47.095
44.001	43.396
45.005	48.151
46.037	44.763
46.944	47.184
47.999	44.545
49.006	51.137
50.000	44.865
51.007	47.264
52.002	42.106
52.943	49.942
54.000	43.704
55.003	48.250
56.032	46.396
57.007	48.098
58.007	42.796
59.006	45.141
60.006	45.495
61.003	46.736
62.006	47.054
63.001	41.805
64.002	45.750
65.007	49.497
65.945	38.482
67.014	48.171
68.009	42.810
69.002	46.924
70.004	45.704
71.005	45.550
72.006	47.448
72.998	41.730
74.003	43.976
75.003	43.796
76.008	45.713
76.945	44.713
78.006	44.359
79.006	47.314
79.944	43.936
81.006	42.291
82.006	45.368
82.943	45.905
83.943	47.214
85.021	43.016
86.009	46.978
87.005	46.299
87.941	43.710
88.940	43.213
90.010	44.219
90.940	10.648
91.939	15.105
92.939	26.308
93.939	33.010
95.023	37.246
95.938	46.134
96.938	45.214
97.938	45.214
98.937	45.414
99.937	44.113
100.937	47.914
101.999	43.475
102.936	43.236
104.002	46.918
104.934	45.244
105.934	45.814
106.934	43.913
107.934	45.914
108.933	46.014
110.089	36.603
