Time [s]	Current [nA]
0.000	32.350
1.061	58.618
2.055	53.516
3.059	58.560
4.061	56.980
5.059	55.962
6.062	56.226
7.055	52.764
8.059	57.863
9.070	56.275
10.062	57.051
11.000	53.406
12.061	57.958
13.058	52.853
14.061	58.818
15.067	56.313
16.061	55.930
17.062	55.639
18.055	52.966
19.073	56.772
20.063	58.176
21.066	56.425
22.061	55.673
23.062	56.038
24.055	52.966
25.060	57.863
26.062	57.679
27.063	55.938
28.062	56.251
29.060	53.201
30.080	55.779
31.062	59.668
32.001	54.734
33.062	57.581
34.059	56.163
35.061	53.042
36.002	56.955
37.067	58.680
38.067	56.094
39.062	56.175
40.090	55.636
41.056	53.100
42.062	58.344
43.062	56.694
44.061	54.249
45.002	51.961
46.058	52.696
47.060	55.783
48.073	53.696
49.063	54.944
50.066	53.534
51.079	53.499
52.060	52.390
53.062	56.980
54.068	54.269
55.063	53.918
56.065	53.388
57.057	50.801
58.058	55.739
59.079	53.374
60.063	55.889
61.062	53.949
62.062	53.495
63.059	50.747
64.064	55.815
65.069	54.178
66.063	54.220
67.003	51.910
68.059	53.120
69.097	53.848
70.064	57.698
71.069	54.223
72.069	53.895
73.064	54.065
74.062	50.997
75.060	56.664
76.065	55.517
77.064	53.949
78.065	54.041
79.060	51.151
80.096	52.794
81.064	58.569
82.063	54.249
83.069	53.772
84.064	53.864
85.057	51.507
86.062	55.616
87.065	55.727
88.065	54.195
89.065	54.295
90.097	54.064
91.004	12.898
