Time [s]	Current [nA]
0.000	20.667
1.003	60.618
2.021	56.582
3.004	52.085
4.003	56.456
5.003	56.500
6.006	59.123
7.003	53.260
8.003	56.800
9.000	56.570
9.998	57.114
11.003	58.905
12.023	50.686
12.999	58.504
14.007	57.738
15.006	56.456
16.005	56.256
16.999	53.119
18.001	58.184
19.004	57.328
20.005	56.044
21.004	56.256
21.998	52.817
23.013	55.567
24.007	59.759
25.006	56.456
26.006	56.000
27.005	56.156
28.006	53.147
29.000	58.853
30.005	56.915
31.001	56.827
32.001	56.100
33.039	55.973
34.000	54.110
34.995	52.563
36.001	56.561
37.009	55.159
38.000	56.105
39.005	58.109
39.994	52.578
41.025	60.427
42.001	51.434
43.001	55.500
43.939	59.382
45.005	54.503
46.002	52.056
47.001	56.557
47.998	55.567
48.997	55.956
49.997	52.800
51.008	56.578
52.001	57.200
53.003	55.489
54.003	55.000
55.011	54.762
55.996	53.503
57.001	58.607
57.990	50.354
58.990	55.100
59.993	54.935
60.998	57.512
62.031	54.211
63.000	53.457
64.009	54.807
64.997	56.275
65.997	55.200
67.000	57.527
67.997	51.555
68.994	56.068
69.998	54.681
70.995	54.865
72.025	54.854
72.995	52.268
73.996	56.843
74.997	56.444
76.002	54.826
76.998	31.325
77.993	17.889
78.993	31.400
79.999	40.656
80.998	46.847
82.013	50.049
83.010	51.956
84.000	52.121
84.998	57.415
86.002	56.275
87.003	55.245
88.001	55.511
88.993	52.722
89.997	57.769
91.003	55.268
92.041	39.499
