Time [s]	Current [nA]
0.000	32.061
0.995	57.381
1.991	53.709
2.994	58.718
3.996	58.178
4.997	56.638
5.996	56.808
6.994	53.401
8.009	57.728
8.999	58.580
10.001	56.881
11.000	56.451
12.002	56.382
12.998	53.408
13.995	58.470
15.000	57.507
16.001	56.294
17.002	56.238
17.994	53.220
19.026	54.936
20.001	60.507
20.998	57.567
21.994	51.200
22.994	56.294
23.993	58.353
24.999	58.443
25.994	51.504
26.993	55.450
27.992	55.850
29.020	55.928
30.002	58.955
30.995	52.462
31.997	56.382
32.997	55.794
33.998	55.539
34.997	58.353
35.992	52.812
37.000	55.848
37.999	56.151
38.995	56.119
40.010	55.068
40.999	57.729
41.995	50.999
43.002	54.513
43.998	53.509
44.998	53.795
45.993	50.699
47.000	55.506
48.018	53.138
49.004	54.660
50.003	53.949
51.003	53.095
51.999	50.899
52.998	56.351
54.003	54.422
55.003	54.195
56.004	53.595
56.995	50.954
58.021	54.283
59.004	56.658
60.000	55.115
60.993	48.938
61.995	53.687
62.995	56.694
64.002	56.995
65.000	50.396
66.000	54.349
67.000	54.695
68.004	56.867
69.018	55.517
70.000	51.115
70.997	55.160
71.996	55.150
72.994	54.909
73.938	54.979
74.938	57.100
76.000	52.542
77.000	54.600
77.999	54.555
79.035	54.054
80.000	52.435
80.999	57.357
82.003	54.980
82.999	54.920
83.999	55.200
84.994	51.457
85.993	57.157
87.002	55.600
87.998	55.120
89.002	54.681
90.007	54.527
90.990	13.530
