Time [s]	Current [nA]
0.000	11.977
1.009	43.702
1.999	41.107
3.015	42.712
4.008	43.097
5.006	43.225
6.005	43.639
7.001	40.759
7.944	46.867
9.006	41.333
10.009	42.967
11.010	42.953
12.002	40.823
13.004	44.806
14.008	42.824
15.010	43.552
16.011	42.953
17.010	42.939
18.007	40.618
19.010	44.861
20.010	43.596
21.007	43.426
22.000	38.868
23.002	44.407
24.040	42.481
25.007	42.542
26.007	43.296
27.007	42.996
28.007	43.096
29.010	45.559
30.007	40.618
31.003	44.172
32.001	43.282
33.000	43.339
34.034	43.323
35.008	44.805
36.005	40.618
37.001	43.871
38.004	43.565
39.007	42.767
40.003	41.261
41.005	44.806
42.004	43.739
43.003	43.439
44.005	43.409
45.043	42.812
46.007	42.631
47.011	45.414
48.009	44.284
49.011	43.509
50.002	39.552
51.005	44.861
52.008	45.658
53.020	43.177
54.008	39.672
55.009	43.296
56.009	43.396
57.008	44.840
58.000	41.427
59.004	43.820
60.007	43.465
61.008	43.352
62.000	45.056
63.003	40.774
63.946	46.337
65.012	41.780
66.009	43.426
67.005	44.072
68.008	46.157
69.005	41.019
70.000	13.165
