Time [s]	Current [nA]
0.000	39.575
1.061	85.194
1.999	81.229
2.999	77.492
3.999	82.092
5.000	80.392
6.000	81.192
7.000	84.792
8.000	73.593
9.000	85.091
10.000	81.392
11.000	80.292
12.000	80.492
13.000	84.192
14.000	76.892
15.001	82.292
16.001	80.592
17.056	76.390
18.001	87.610
19.056	78.286
20.000	81.454
21.000	82.092
22.000	80.592
23.058	76.646
24.000	81.308
25.001	83.892
26.001	81.892
27.001	80.392
28.001	81.392
29.001	81.992
30.001	78.592
31.001	85.291
32.001	74.793
33.001	87.791
34.053	77.179
35.002	81.110
36.001	84.576
37.001	73.593
38.001	84.092
39.001	81.392
40.001	80.992
41.001	84.092
42.001	77.892
43.060	77.707
44.056	81.116
45.002	85.282
46.002	83.792
47.002	74.593
48.058	79.916
49.002	84.420
50.002	75.092
51.002	73.993
52.002	78.192
53.002	71.693
54.059	73.597
55.001	81.202
56.058	72.531
57.002	83.043
58.079	71.302
59.002	78.757
60.002	77.292
61.002	76.292
62.002	75.492
63.002	8.899
