Time [s]	Current [nA]
0.000	75.668
1.000	80.492
2.000	80.392
3.072	79.750
4.000	81.242
5.001	73.993
6.001	86.891
7.001	73.293
8.001	83.492
9.060	78.274
10.005	85.388
11.001	74.892
12.001	80.192
13.001	79.992
14.001	83.592
15.002	75.792
16.002	80.092
17.001	79.972
18.063	83.137
19.001	79.843
20.001	73.493
21.001	82.192
22.001	82.192
23.001	78.992
24.001	79.492
25.002	75.492
26.002	81.992
27.002	80.492
28.002	79.292
29.002	79.492
30.064	77.299
31.002	77.817
32.002	83.292
33.002	80.392
34.002	78.892
35.002	79.171
36.002	81.792
37.063	79.634
38.002	77.096
39.002	78.892
40.002	79.292
41.002	80.192
42.002	80.992
43.002	75.692
44.002	80.692
45.003	78.792
46.003	79.192
47.003	81.592
48.003	75.192
49.003	80.492
50.003	78.892
51.003	79.192
52.084	81.953
53.002	72.542
54.002	81.692
55.059	76.602
56.059	79.192
57.003	83.360
58.003	75.892
59.003	81.792
60.003	80.192
61.003	81.192
62.143	64.204
