Time [s]	Current [nA]
0.000	31.209
1.000	82.492
2.000	82.992
3.000	85.891
4.000	78.592
5.062	80.105
6.001	88.277
7.000	82.474
8.000	83.792
9.000	77.692
10.056	81.147
11.000	87.809
12.000	82.592
13.000	82.592
14.000	85.491
15.000	78.792
16.060	79.312
17.001	87.133
18.001	82.392
19.001	82.492
20.001	79.592
21.001	85.691
22.001	82.892
23.001	82.392
24.057	78.022
25.003	90.477
26.001	78.829
27.001	83.392
28.001	83.792
29.001	81.992
30.063	77.770
31.001	82.934
32.001	85.191
33.001	82.692
34.001	81.492
35.001	81.892
36.002	84.692
37.002	76.892
38.002	84.392
39.002	82.692
40.002	81.792
41.002	82.192
42.001	77.570
43.001	84.392
44.001	83.492
45.060	77.024
46.002	86.722
47.002	77.492
48.002	81.492
49.002	85.391
50.002	81.792
51.002	81.892
52.002	80.392
53.002	83.692
54.002	77.592
55.002	83.392
56.003	80.692
57.003	80.392
58.003	83.592
59.002	75.068
60.060	80.616
61.033	47.066
