Time [s]	Current [nA]
0.000	11.852
1.000	82.392
2.000	81.592
3.000	81.692
4.062	80.030
5.001	83.041
6.001	82.692
7.001	81.492
8.001	81.592
9.001	84.792
10.000	76.869
11.088	82.988
12.062	83.975
13.000	78.350
14.000	81.492
15.001	84.492
16.001	77.392
17.001	82.792
18.001	81.092
19.001	81.792
20.001	84.392
21.088	76.717
22.001	83.234
23.001	82.292
24.001	80.792
25.059	77.097
26.002	82.388
27.002	84.092
28.001	83.375
29.001	80.892
30.001	80.892
31.001	83.392
32.001	75.592
33.058	80.030
34.001	87.584
35.002	81.292
36.003	82.010
37.002	77.570
38.061	79.879
39.002	80.226
40.002	81.292
41.007	87.553
42.002	74.364
43.064	81.254
44.067	85.535
45.065	83.241
46.002	78.114
47.002	80.992
48.002	84.092
49.002	78.192
50.002	81.892
51.002	81.992
52.059	76.530
53.002	85.675
54.057	79.329
55.003	81.791
56.003	82.492
57.003	81.192
58.055	76.323
59.003	87.649
60.003	77.192
61.091	82.712
62.003	26.642
