Time [s]	Current [nA]
0.000	63.981
0.995	72.958
1.934	83.698
2.934	72.193
4.000	80.105
4.934	79.114
5.935	80.792
6.935	71.693
7.935	77.892
8.935	77.192
9.999	79.315
10.935	78.945
11.935	80.592
12.935	71.993
13.935	77.092
14.935	77.200
15.935	80.500
16.934	80.681
18.008	72.905
18.995	79.534
19.993	76.954
20.992	76.677
21.934	78.556
22.934	74.900
23.934	78.300
24.934	77.400
25.990	80.303
26.934	77.860
27.934	81.300
28.934	72.400
29.934	78.000
30.934	77.900
31.934	78.100
32.934	81.000
33.934	81.000
34.933	72.673
35.933	78.400
36.933	77.900
37.933	80.900
38.933	79.200
39.933	74.400
40.933	79.200
41.933	77.800
42.933	78.200
43.933	81.300
44.933	81.700
45.933	72.300
46.933	78.100
47.933	78.100
48.933	79.700
49.933	80.300
50.933	74.700
51.932	78.979
52.932	77.700
53.932	78.000
54.994	83.804
55.990	73.494
56.990	80.100
57.932	74.735
58.932	78.100
59.932	78.100
60.989	77.294
61.932	79.003
62.932	78.800
64.084	37.760
