Time [s]	Current [nA]
0.000	32.390
1.000	81.492
2.061	76.807
3.062	81.410
4.000	81.868
5.000	85.491
6.001	81.992
7.064	76.756
8.001	86.971
9.001	77.692
10.001	84.092
11.068	76.843
12.055	83.376
13.064	80.765
14.001	79.821
15.056	79.878
16.002	89.209
17.061	77.707
18.001	86.055
19.058	76.813
20.001	81.752
21.001	82.392
22.058	80.692
23.062	61.846
24.001	40.997
25.001	55.894
26.002	71.393
27.060	74.945
28.062	80.531
29.002	77.865
30.002	81.392
31.002	81.792
32.002	84.992
33.062	80.275
34.002	79.035
35.067	84.484
36.002	78.709
37.002	85.191
38.002	76.792
39.087	82.665
40.002	79.664
41.064	84.831
42.002	77.924
43.061	79.595
44.002	82.245
45.002	82.792
46.003	81.092
47.003	81.092
48.003	76.792
49.003	84.292
50.003	81.792
51.003	82.492
52.002	81.073
53.060	76.930
54.065	85.962
55.061	76.676
56.062	81.710
57.003	77.994
58.003	80.992
59.003	83.692
60.003	83.292
61.003	82.692
62.003	74.393
63.003	45.195
