Time [s]	Current [nA]
0.000	74.393
1.000	82.092
2.000	83.492
3.059	80.162
4.059	80.792
4.999	77.014
6.000	80.992
7.000	84.492
8.000	83.292
9.062	78.052
10.000	77.284
11.000	80.792
12.103	80.228
13.000	85.722
14.000	82.892
15.000	75.092
16.001	80.392
17.001	80.592
18.001	83.192
19.001	84.292
20.001	74.793
21.001	80.992
22.000	80.372
23.000	80.492
24.000	83.892
25.061	80.558
26.001	77.652
27.001	80.092
28.059	83.167
29.056	76.422
30.001	79.780
31.001	82.392
32.001	81.992
33.001	80.592
34.001	81.892
35.001	83.392
36.002	76.692
37.002	81.792
38.002	80.492
39.001	80.372
40.001	75.492
41.001	80.992
42.001	83.592
43.001	80.992
44.001	79.792
45.059	75.678
46.002	80.480
47.064	85.961
48.002	78.564
49.060	75.229
50.002	85.130
51.002	82.592
52.002	74.493
53.002	83.392
54.002	80.292
55.002	79.992
56.002	80.172
57.002	82.392
58.064	79.936
59.059	74.063
60.002	84.721
61.002	80.092
62.002	16.298
