Time [s]	Current [nA]
0.000	64.794
1.000	80.092
1.999	79.572
3.058	75.158
3.999	75.975
5.060	79.520
6.000	75.418
7.000	81.192
8.000	81.592
9.000	72.893
10.000	78.292
11.000	77.892
12.000	79.892
13.000	80.692
14.000	74.393
15.001	79.092
16.001	77.792
17.001	78.292
18.001	81.592
19.056	77.907
20.000	77.323
21.056	80.106
22.000	75.628
23.000	78.992
24.000	83.092
25.000	75.193
26.001	79.492
27.001	78.892
28.001	79.292
29.001	81.692
30.060	78.368
31.001	78.101
32.066	82.433
33.001	75.821
34.001	79.292
35.002	82.592
36.002	75.692
37.001	79.872
38.001	78.992
39.062	81.990
40.055	75.219
41.001	86.778
42.001	72.893
43.001	80.492
44.061	81.030
45.001	76.163
46.002	82.292
47.002	82.092
48.064	75.793
49.002	76.858
50.002	79.092
51.002	81.692
52.002	81.292
53.002	73.993
54.001	79.472
55.001	79.092
56.002	78.992
57.002	82.092
58.061	77.235
59.061	80.692
60.062	78.913
61.002	75.950
62.002	81.392
63.211	42.676
