Time [s]	Current [nA]
0.000	70.093
1.000	83.192
2.057	78.043
3.000	85.569
4.000	80.692
5.001	83.592
6.001	74.793
7.001	83.592
8.001	81.292
9.065	83.074
10.001	77.984
11.000	84.576
12.000	76.792
13.000	82.292
14.000	80.792
15.001	80.992
16.001	83.892
17.001	74.693
18.001	85.291
19.001	81.992
20.001	81.092
21.001	81.292
22.001	84.991
23.001	78.092
24.001	83.092
25.059	77.570
26.002	86.736
27.002	82.892
28.061	78.557
29.063	86.418
30.001	79.097
31.001	81.592
32.057	77.549
33.001	90.033
34.001	77.792
35.002	82.692
36.002	44.096
37.002	45.795
38.002	60.894
39.002	67.593
40.002	79.792
41.058	76.602
42.002	86.856
43.002	81.792
44.002	84.991
45.003	77.892
46.002	83.175
47.059	78.138
48.002	86.206
49.002	81.992
50.061	80.351
51.002	82.882
52.060	78.631
53.060	81.592
54.060	81.592
55.062	84.607
56.065	86.133
57.091	79.719
58.053	76.915
59.057	80.868
60.003	86.355
61.003	85.191
62.131	56.023
