Time [s]	Current [nA]
0.000	6.097
1.000	80.392
2.000	75.492
3.000	80.092
4.000	78.692
5.001	78.792
6.056	78.002
7.001	86.341
8.000	73.566
9.060	81.313
10.000	75.205
11.000	79.392
12.000	83.092
13.000	75.292
14.058	76.552
15.058	78.371
16.001	83.449
17.001	80.992
18.001	75.492
19.001	79.992
20.001	78.292
21.067	74.570
22.001	84.574
23.001	75.792
24.001	82.492
25.002	72.993
26.062	80.935
27.001	75.392
28.001	80.992
29.001	75.193
30.001	79.292
31.001	79.392
32.001	78.192
33.001	78.392
34.001	81.392
35.002	81.192
36.002	72.793
37.002	78.092
38.002	78.192
39.002	80.992
40.002	81.492
41.002	72.293
42.067	81.025
43.001	74.939
44.001	78.092
45.001	80.992
46.002	80.192
47.063	75.393
48.002	75.498
49.002	77.192
50.002	80.692
51.002	78.692
52.002	74.193
53.002	78.292
54.002	77.092
55.003	77.492
56.003	80.192
57.003	80.492
58.003	72.193
59.064	79.917
60.002	74.619
61.002	77.892
62.059	76.341
63.002	77.617
64.002	64.993
