Time [s]	Current [nA]
0.000	12.376
1.000	82.092
2.000	82.192
3.057	80.408
4.000	82.706
5.058	78.043
6.001	86.524
7.001	81.392
8.001	83.692
9.001	77.892
10.001	82.892
11.064	78.449
12.001	88.038
13.056	77.717
14.056	77.592
15.001	89.832
16.064	77.676
17.001	78.968
18.001	81.692
19.001	84.991
20.001	82.992
21.001	76.492
22.001	81.692
23.001	80.492
24.001	80.892
25.001	83.392
26.061	74.780
27.002	74.488
28.002	76.392
29.002	75.592
30.002	76.692
31.002	77.492
32.002	73.093
33.002	76.592
34.061	78.368
35.001	74.142
36.065	82.494
37.002	77.794
38.002	71.593
39.002	77.192
40.002	76.992
41.002	77.892
42.002	81.292
43.002	74.693
44.002	79.592
45.002	79.692
46.003	78.592
47.003	81.792
48.003	81.292
49.003	73.593
50.003	80.092
51.003	78.492
52.002	79.071
53.060	77.213
54.059	82.374
55.002	76.769
56.062	82.145
57.003	77.251
58.003	83.092
59.003	82.892
60.010	80.032
61.003	74.414
62.067	81.853
63.065	65.424
