Time [s]	Current [nA]
0.000	57.794
1.000	85.092
2.000	76.392
2.999	81.674
3.999	89.291
4.999	78.392
6.000	85.291
7.000	83.092
8.000	75.792
9.000	82.492
10.000	81.792
11.000	84.991
12.000	85.691
13.000	76.092
14.000	81.592
15.000	89.091
16.001	77.692
17.001	83.392
18.001	79.092
19.001	83.092
20.001	82.892
21.000	82.674
22.058	81.088
23.000	83.113
24.055	79.234
25.000	86.658
26.001	81.792
27.001	83.792
28.001	83.992
29.001	78.592
30.001	83.692
31.001	82.192
32.001	82.492
33.059	80.427
34.001	83.643
35.001	83.392
36.002	81.992
37.002	82.092
38.001	82.574
39.001	78.992
40.001	85.391
41.001	83.892
42.001	81.992
43.059	77.686
44.060	85.406
45.001	83.839
46.002	83.092
47.002	83.592
48.002	81.592
49.002	82.092
50.002	86.191
51.002	78.492
52.060	79.293
53.002	86.934
54.002	82.392
55.002	78.592
56.002	83.976
57.002	84.092
58.002	83.292
59.002	81.692
60.058	77.549
61.002	10.168
