Time [s]	Current [nA]
0.000	33.772
1.000	79.600
1.999	83.083
2.999	77.100
3.999	80.100
4.999	79.500
5.999	79.500
6.999	82.500
8.095	73.814
8.999	82.190
9.999	80.000
10.999	79.000
11.999	79.000
12.999	82.000
13.999	75.900
14.999	80.000
15.999	78.700
17.060	81.621
17.999	77.636
18.999	81.500
19.998	75.576
20.998	79.800
21.998	78.700
22.998	78.600
23.998	82.200
24.998	74.900
25.998	79.800
27.058	81.321
27.998	75.745
28.998	78.700
29.998	82.900
31.059	77.663
31.998	77.210
32.998	79.000
33.998	78.700
34.998	81.700
35.998	74.400
36.997	78.879
37.997	78.800
39.057	81.038
40.057	78.800
40.997	79.255
41.997	75.100
42.997	79.600
44.056	81.020
44.997	75.133
45.997	81.400
47.003	81.909
47.997	72.334
48.997	79.700
49.997	78.600
50.997	78.500
51.997	81.700
53.051	77.514
53.997	77.273
54.996	78.378
55.996	78.400
56.996	81.000
57.996	81.100
58.996	73.900
59.996	79.800
60.996	78.900
61.996	78.600
62.996	43.500
64.098	28.494
