Time [s]	Current [nA]
0.000	60.800
1.000	71.500
2.000	62.900
3.000	67.700
4.000	73.800
5.000	64.800
6.054	67.837
7.070	66.929
8.061	69.223
9.000	65.602
10.000	73.900
11.000	64.700
12.000	71.500
13.000	62.800
14.053	69.991
14.999	71.776
15.999	64.700
16.999	70.600
17.999	68.400
18.999	62.700
19.999	73.600
21.049	64.762
21.999	67.684
22.999	71.000
24.056	65.279
24.999	65.005
26.057	69.187
27.057	65.500
27.999	72.611
28.999	65.200
29.999	68.600
30.998	67.568
31.998	68.000
33.056	66.541
33.998	74.947
35.058	64.906
35.998	65.957
36.998	67.600
37.998	68.100
38.998	41.400
40.056	32.136
40.998	43.312
41.998	53.500
43.056	61.626
43.998	63.482
44.998	71.200
45.998	63.100
47.054	70.833
47.998	72.670
48.997	69.069
50.062	68.357
51.056	64.789
52.057	70.430
52.997	65.426
53.997	68.400
54.997	70.700
55.997	71.800
56.997	62.300
58.062	72.019
58.997	65.562
59.997	68.200
60.997	70.600
61.997	71.800
62.997	63.300
63.997	74.100
65.051	65.085
65.996	68.466
67.075	65.802
67.996	75.353
68.996	62.900
69.996	68.000
70.996	74.000
71.996	65.300
72.996	70.700
73.996	62.900
74.996	13.799
