Time [s]	Current [nA]
0.000	56.391
0.936	68.803
1.936	71.600
2.936	73.600
4.005	70.159
5.003	72.244
5.936	69.132
6.936	71.100
7.936	71.400
8.936	73.600
9.936	67.500
10.936	71.800
11.989	67.426
12.991	71.058
13.935	77.648
15.017	67.006
15.935	72.440
16.935	72.100
17.935	70.900
18.935	71.000
19.993	69.376
20.935	71.338
21.935	72.300
22.935	70.600
23.935	71.000
24.935	73.400
25.935	65.700
27.000	76.150
27.935	69.412
28.935	70.100
29.987	67.015
30.934	77.508
31.934	67.400
32.934	72.300
33.934	70.100
34.990	66.761
35.934	75.212
36.934	68.000
37.934	73.200
38.934	71.700
39.983	67.016
40.934	74.553
41.993	68.650
42.934	71.838
43.934	71.500
44.934	71.200
45.934	70.400
46.933	70.370
47.933	73.200
48.996	70.649
49.933	69.157
50.990	66.320
51.984	70.926
52.933	76.502
53.933	67.200
54.933	71.700
55.933	72.000
56.933	70.100
57.933	70.400
58.933	68.000
59.933	73.400
60.933	71.600
61.933	70.300
62.933	70.000
63.933	73.700
64.932	64.865
65.932	73.800
66.989	67.550
67.932	74.443
68.932	70.400
70.043	55.266
