Time [s]	Current [nA]
0.000	37.445
1.000	73.900
2.000	74.100
3.060	72.264
4.000	74.787
5.058	70.794
6.000	77.919
7.057	69.158
8.000	80.382
9.000	68.000
10.000	76.900
11.000	73.700
11.999	72.973
13.056	69.347
13.999	80.170
15.062	73.095
15.999	70.971
16.999	73.000
17.999	73.500
19.081	67.468
19.999	75.926
20.999	75.900
21.999	74.400
22.999	72.300
23.999	73.000
24.999	73.200
25.999	64.900
26.999	68.200
27.999	68.900
28.998	66.567
29.998	61.200
30.998	69.100
31.998	71.200
32.998	62.700
34.060	69.962
35.052	68.448
35.998	69.133
36.998	70.400
37.998	69.200
38.998	64.000
39.998	68.700
40.998	67.700
42.056	66.541
43.056	70.800
43.998	67.304
44.998	68.400
45.997	68.769
46.997	71.200
47.997	69.500
48.997	71.000
49.997	64.000
50.997	69.400
51.997	75.400
52.997	66.000
54.056	69.027
54.997	70.032
56.055	72.684
56.997	67.410
58.059	75.235
58.997	67.271
59.997	68.500
60.997	71.600
62.055	72.779
63.059	70.817
63.996	72.145
65.056	71.132
65.996	70.745
67.051	73.460
67.996	75.661
68.996	65.400
69.996	74.600
70.996	15.500
