Time [s]	Current [nA]
0.000	55.600
1.000	73.300
2.061	76.155
3.001	73.298
4.002	76.623
5.065	70.931
6.003	71.109
7.002	73.674
8.003	74.326
9.059	72.064
10.005	80.867
10.999	69.115
11.999	74.000
13.002	73.280
14.000	77.555
15.002	77.645
15.999	69.308
17.000	74.026
18.066	76.548
18.999	72.562
19.999	78.200
21.004	76.020
21.999	69.146
22.999	74.000
23.999	74.900
25.002	77.268
26.004	77.944
27.004	68.300
27.998	77.264
28.998	75.600
30.002	75.797
31.003	78.122
32.000	71.916
33.057	71.429
33.998	78.640
35.002	71.016
36.060	33.743
37.003	39.661
37.999	54.217
38.998	63.664
40.001	67.896
41.059	68.336
42.003	82.945
43.000	72.016
44.056	72.443
44.998	79.512
45.997	74.975
47.002	77.413
48.001	68.869
48.997	78.514
49.997	75.600
50.997	74.400
51.997	75.000
53.001	77.291
54.062	74.458
55.056	68.612
55.997	79.490
56.997	75.000
58.000	76.271
58.999	70.170
59.998	78.178
60.997	75.876
61.997	74.800
62.996	74.975
64.002	77.435
65.000	71.543
65.996	76.406
66.997	74.525
68.130	54.722
