Time [s]	Current [nA]
0.000	34.787
1.086	77.072
2.000	76.915
3.061	73.327
3.999	81.130
4.999	76.300
5.999	73.200
6.999	79.100
7.999	69.800
8.999	75.800
10.064	78.498
10.999	74.759
11.999	78.200
12.999	72.200
13.999	76.700
14.999	75.700
15.999	75.900
16.999	78.500
17.999	72.200
18.999	76.800
20.061	71.657
20.998	80.683
21.998	75.600
23.063	75.117
23.998	75.829
24.998	76.400
26.057	71.199
26.998	80.128
27.998	71.500
28.998	72.400
29.998	82.400
30.998	69.100
31.998	81.600
32.998	75.200
33.998	71.500
34.998	78.600
36.056	72.968
36.998	72.187
37.997	75.275
39.063	80.019
40.004	75.239
40.997	70.091
41.997	76.200
42.997	75.100
43.997	75.500
44.997	78.500
45.997	71.400
46.997	76.700
47.997	75.500
48.997	75.200
49.997	70.100
51.099	75.771
52.059	74.792
52.997	81.023
53.997	75.600
54.996	75.576
55.996	72.500
56.996	71.400
58.057	78.605
58.996	72.204
59.996	75.200
61.078	79.482
62.059	70.133
62.996	58.164
63.996	36.900
64.996	48.600
65.996	61.100
66.996	70.700
68.030	20.309
