Time [s]	Current [nA]
0.000	41.764
0.934	75.803
1.996	75.235
2.934	73.348
3.934	75.300
4.934	75.100
5.937	77.268
6.934	69.809
7.933	79.079
8.933	75.800
9.933	74.500
10.990	71.050
11.933	75.610
12.933	77.700
13.933	76.700
14.933	74.800
15.989	70.928
16.933	79.873
17.933	71.100
18.987	74.099
19.933	80.021
20.933	74.900
21.933	75.100
22.933	71.100
23.933	77.600
25.017	77.583
25.994	68.884
26.932	79.318
27.990	70.227
29.001	76.558
29.990	72.497
30.994	74.801
31.990	74.297
32.990	74.700
33.990	77.300
34.994	77.888
36.007	74.630
36.989	68.737
37.989	74.400
38.990	74.625
39.992	78.144
40.932	74.894
41.989	71.429
42.931	78.769
43.931	74.600
44.988	73.037
45.931	73.171
46.931	77.600
47.988	71.050
48.931	79.321
49.931	74.800
50.931	70.800
51.931	76.800
52.931	71.900
53.931	68.400
54.931	69.300
55.931	71.000
56.931	63.700
57.931	72.500
58.931	68.800
59.931	69.000
60.930	69.269
61.930	65.700
62.930	71.700
63.930	70.800
64.930	69.700
65.930	70.500
66.930	71.000
67.930	29.200
