Time [s]	Current [nA]
0.000	19.946
1.000	69.600
2.000	73.600
3.000	66.300
4.000	74.300
5.055	69.100
6.000	76.825
7.000	72.000
8.000	74.400
9.000	68.200
10.000	73.400
11.000	72.000
11.999	72.873
12.999	74.800
14.086	67.065
14.999	76.123
15.999	74.200
16.999	73.300
17.999	74.300
18.999	76.000
19.999	70.600
20.999	75.300
21.999	74.000
22.999	73.200
23.999	74.900
24.999	75.900
25.999	71.000
26.999	75.700
27.999	74.500
28.999	73.800
30.061	71.940
30.998	75.560
31.998	75.000
32.998	74.300
33.998	73.900
34.998	74.400
35.998	71.200
36.998	77.300
37.998	74.800
38.998	74.200
39.998	74.100
40.998	77.400
41.998	70.700
42.998	74.800
43.998	75.800
44.998	73.200
45.998	74.200
47.053	73.934
47.997	74.364
48.997	75.300
50.053	70.549
51.051	74.649
51.997	82.030
52.997	69.700
53.997	76.600
54.997	75.400
55.997	74.500
56.997	74.900
57.997	77.400
58.997	71.300
60.054	72.280
60.997	79.427
61.997	74.700
62.997	71.500
63.997	74.700
65.052	73.839
65.996	79.767
67.052	70.265
68.057	41.990
