Time [s]	Current [nA]
0.000	27.772
0.943	74.443
1.948	77.214
2.943	68.543
3.943	73.600
5.001	75.803
5.943	73.885
6.943	75.700
7.947	75.996
8.942	68.141
9.947	79.801
10.942	68.040
12.000	72.873
13.002	77.146
13.942	72.553
14.942	73.900
15.942	74.200
16.942	76.100
17.942	74.800
19.001	73.088
20.002	75.125
20.942	70.426
21.946	79.880
22.942	70.683
23.943	76.923
25.000	71.050
25.942	70.807
26.946	79.582
27.941	68.040
28.941	76.300
30.004	72.060
30.941	72.145
32.000	75.354
32.941	71.307
34.004	79.022
34.999	69.648
35.951	78.571
36.941	67.778
37.949	79.762
39.020	68.908
39.941	76.656
40.946	75.622
41.941	67.739
43.000	75.354
43.944	77.331
44.940	69.879
45.998	72.779
46.940	71.019
48.005	78.028
49.002	74.624
49.940	71.109
50.996	72.538
51.996	70.000
52.997	74.525
53.940	77.731
54.996	69.318
55.998	75.948
57.008	76.337
57.940	71.030
58.994	71.063
59.995	73.227
60.994	73.574
61.940	80.655
62.939	69.770
63.939	75.200
64.994	69.479
65.939	77.884
66.943	76.693
68.020	32.869
