Time [s]	Current [nA]
0.000	24.681
1.000	76.200
2.000	77.000
3.060	73.774
4.057	72.919
5.000	81.760
6.000	76.000
7.000	76.100
8.000	79.000
9.062	75.989
10.000	74.414
11.058	71.834
12.000	80.573
12.999	76.376
13.999	72.600
14.999	79.100
15.999	76.500
16.999	75.700
17.999	76.200
18.999	78.900
19.999	72.700
21.079	79.444
21.999	74.674
22.999	75.400
23.999	75.600
24.999	79.200
25.999	72.400
26.999	77.100
27.999	75.600
28.999	75.800
29.998	78.979
30.998	70.200
31.998	78.900
32.998	76.500
33.998	76.200
34.998	75.000
35.998	78.700
36.998	72.300
38.054	72.633
38.998	80.085
39.998	75.700
40.998	78.100
41.998	70.200
42.998	79.100
44.056	71.645
44.998	79.724
45.998	75.600
46.998	78.500
48.059	75.118
48.997	73.667
50.048	71.456
50.997	79.557
52.085	69.945
52.997	78.947
53.997	78.700
55.055	71.550
55.997	80.255
56.997	75.500
57.997	78.400
58.997	71.500
60.086	77.594
60.997	74.643
62.056	71.010
62.997	80.128
64.059	73.635
64.996	76.628
66.059	47.037
