Time [s]	Current [nA]
0.000	24.654
1.000	76.300
2.000	79.400
3.000	79.600
4.000	71.000
5.000	76.200
6.061	78.228
7.000	76.571
8.000	76.500
9.000	73.600
9.999	77.377
10.999	76.100
11.999	76.500
12.999	79.600
13.999	72.100
14.999	77.400
15.999	76.300
16.999	76.900
17.999	77.600
18.999	77.600
19.999	72.100
20.999	78.600
21.999	76.100
22.999	75.900
24.062	76.482
25.058	71.285
25.999	74.176
26.998	76.476
28.061	77.705
28.998	74.386
29.998	78.400
30.998	72.100
32.063	77.559
32.998	73.690
34.060	77.589
34.998	77.079
35.998	78.200
36.998	68.600
38.063	79.531
38.998	72.727
39.998	75.100
40.998	78.500
41.998	71.800
43.063	78.779
43.998	72.620
44.997	76.376
45.997	72.200
46.997	75.600
47.997	78.900
48.997	76.800
49.997	75.600
51.060	71.402
51.997	76.521
52.997	78.700
53.997	76.300
54.997	75.800
56.053	71.402
56.997	76.377
57.997	75.600
58.997	71.900
59.997	76.700
60.997	75.500
62.061	77.444
62.996	75.722
63.996	71.800
64.996	76.600
66.129	49.603
