Time [s]	Current [nA]
0.000	66.541
0.942	79.830
1.998	71.212
2.941	81.442
3.941	71.500
4.999	72.495
5.941	79.724
6.941	75.100
8.047	76.492
8.941	69.128
9.941	78.100
10.941	75.000
11.941	75.000
12.941	74.100
13.999	72.779
14.941	75.796
15.941	75.300
16.941	75.500
17.941	74.100
18.940	74.575
19.999	73.182
20.940	75.239
21.996	71.023
22.940	79.025
23.940	74.700
24.944	76.594
25.940	69.879
26.940	76.200
27.940	74.400
28.940	74.300
29.940	74.400
30.940	76.800
31.940	70.800
32.940	75.700
34.006	69.794
34.940	79.764
35.940	70.100
36.939	74.675
37.939	77.500
38.939	74.700
39.939	73.600
40.939	73.900
41.939	76.700
42.939	70.300
43.939	76.300
44.939	74.300
45.939	74.600
46.939	76.800
47.939	69.200
48.939	77.900
49.939	74.700
50.939	74.400
51.939	74.600
52.993	73.150
53.938	74.815
54.938	75.900
55.996	70.510
56.938	79.299
57.938	74.400
58.938	71.300
59.938	77.400
60.938	75.100
61.938	74.200
62.995	70.388
63.938	74.761
64.938	77.300
65.938	75.200
66.991	15.764
