Time [s]	Current [nA]
0.000	77.178
1.095	77.800
2.000	87.284
3.000	84.192
4.000	56.494
5.000	41.496
6.001	49.895
7.001	67.993
8.001	68.993
9.056	80.182
10.000	87.703
11.000	79.092
12.000	86.991
13.000	81.092
14.000	85.192
15.058	86.841
16.001	89.175
17.001	80.092
18.001	88.191
19.001	78.392
20.001	83.892
21.001	90.991
22.001	76.692
23.057	82.757
24.001	92.787
25.062	79.615
26.002	88.715
27.001	83.675
28.064	82.494
29.001	83.129
30.015	84.311
31.062	80.508
32.064	82.327
33.001	81.529
34.001	86.791
35.001	79.092
36.002	83.892
37.002	84.292
38.058	79.064
39.002	91.093
40.002	78.292
41.002	83.492
42.002	85.391
43.002	83.392
44.002	83.192
45.001	80.072
46.061	81.673
47.002	81.607
48.060	84.963
49.002	87.889
50.002	78.792
51.080	79.306
52.002	92.073
53.064	78.900
54.002	80.802
55.002	82.592
56.003	85.691
57.003	85.691
58.003	83.792
59.003	82.292
60.003	82.792
61.175	52.469
