Time [s]	Current [nA]
0.000	63.494
1.000	83.492
2.000	83.792
2.999	87.078
3.999	80.692
5.053	80.334
6.000	87.953
7.000	83.592
8.000	85.491
9.000	84.292
10.000	79.792
11.000	83.992
12.000	82.592
13.000	82.492
14.000	86.391
15.000	79.192
16.001	84.092
17.056	78.096
18.001	87.399
19.085	76.376
20.000	86.330
21.000	86.091
22.000	84.092
23.000	81.792
24.055	78.191
25.000	90.467
26.001	77.292
27.001	83.292
28.001	82.592
29.001	82.392
30.001	82.692
31.001	79.192
32.001	85.491
33.001	83.892
34.057	77.738
35.001	86.856
36.002	79.092
37.002	84.792
38.001	83.175
39.001	83.692
40.001	81.492
41.001	81.792
42.001	85.391
43.001	78.292
44.001	83.692
45.001	82.192
46.057	77.907
47.002	90.361
48.002	76.692
49.002	85.691
50.002	83.092
51.002	82.292
52.002	82.592
53.002	78.292
54.002	85.891
55.001	83.675
56.002	82.192
57.058	78.022
58.064	85.180
59.002	80.909
60.054	61.876
