Time [s]	Current [nA]
0.000	19.827
0.942	84.493
1.942	85.991
2.942	75.592
4.003	84.157
4.942	87.105
5.943	74.693
6.943	86.391
7.943	85.491
8.943	76.192
9.943	83.292
10.943	82.792
11.943	85.391
12.943	78.492
13.942	83.275
14.942	82.892
15.943	82.592
16.943	83.192
17.943	85.591
18.943	79.192
19.943	83.992
20.943	82.192
22.001	77.781
22.943	82.264
24.010	87.245
25.011	82.992
25.944	80.485
26.944	81.692
28.006	76.828
28.944	81.868
29.944	84.392
30.944	82.292
31.943	82.074
32.943	81.192
33.998	79.613
35.028	80.944
35.944	81.433
36.944	83.992
37.944	81.692
38.944	81.492
39.944	77.592
40.944	84.991
41.999	78.286
42.999	80.792
43.944	85.494
44.944	75.792
45.945	83.692
46.945	77.192
47.945	81.592
49.005	83.860
49.944	78.054
50.999	79.234
51.944	88.563
52.944	75.792
53.944	81.492
54.944	81.692
55.945	82.692
57.007	79.936
57.945	83.147
58.945	82.592
59.945	81.292
60.945	81.892
61.945	8.899
