Time [s]	Current [nA]
0.000	57.694
1.000	85.991
2.057	79.651
2.999	79.822
4.060	84.911
4.999	80.290
6.000	85.291
7.000	78.192
8.000	83.392
9.000	81.692
10.000	82.192
11.052	81.266
12.000	90.497
13.000	76.292
14.060	85.746
15.070	81.260
16.001	80.658
17.001	86.191
18.001	77.792
19.001	83.492
20.000	82.274
21.000	82.692
22.000	85.491
23.000	85.591
24.000	75.792
25.066	87.034
26.001	79.778
27.001	83.592
28.059	81.655
29.001	82.900
30.001	83.392
31.062	77.278
32.001	87.425
33.001	78.092
34.083	87.145
35.064	75.911
36.002	88.691
37.060	78.348
38.007	88.164
39.001	78.966
40.001	84.292
41.001	76.292
42.001	81.992
43.001	81.892
44.001	84.792
45.001	83.292
46.002	79.592
47.002	82.792
48.002	82.892
49.002	82.492
50.060	80.994
51.002	83.856
52.059	79.557
53.002	87.478
54.002	82.592
55.001	82.474
56.002	79.092
57.002	84.692
58.002	83.492
59.002	82.592
60.002	81.892
61.002	0.700
