Time [s]	Current [nA]
0.000	26.408
1.000	84.392
2.000	78.392
3.000	81.992
3.999	81.373
4.999	81.092
6.079	75.340
7.000	84.139
8.000	84.592
9.000	82.492
10.000	80.492
11.000	81.892
12.000	84.092
13.000	76.892
14.000	82.192
15.001	82.092
16.001	80.692
17.001	80.192
18.001	83.392
19.001	77.192
20.001	81.892
21.000	80.072
22.057	75.016
23.000	82.600
24.000	67.693
25.000	72.893
26.001	71.693
27.001	71.193
28.001	71.893
29.001	74.992
30.062	72.000
31.057	66.024
32.001	76.793
33.001	72.393
34.001	77.192
35.002	66.693
36.002	76.792
37.002	76.192
38.002	74.992
39.001	73.166
40.059	71.354
41.001	74.196
42.001	75.292
43.001	73.693
44.001	74.193
45.001	77.592
46.002	70.393
47.002	78.992
48.002	77.492
49.002	76.592
50.002	76.492
51.060	75.701
52.002	78.442
53.002	78.592
54.002	77.192
55.002	78.192
56.002	78.671
57.062	78.388
58.002	77.333
59.002	78.492
60.002	77.492
61.002	77.592
62.002	80.992
63.063	77.089
64.002	74.753
65.002	38.396
