Time [s]	Current [nA]
0.000	81.692
1.000	88.691
2.000	78.492
3.000	83.992
4.000	84.392
5.001	87.691
6.001	87.491
7.001	85.691
8.062	81.330
9.001	80.716
10.060	87.432
11.000	84.672
12.000	87.691
13.000	77.092
14.054	86.234
15.000	81.493
16.001	87.391
17.001	85.291
18.001	87.191
19.001	76.992
20.058	86.084
21.065	83.507
22.001	85.355
23.001	86.791
24.001	78.392
25.002	83.492
26.002	83.792
27.002	85.091
28.001	85.877
29.001	79.792
30.001	84.292
31.001	82.692
32.001	82.992
33.001	86.491
34.001	86.491
35.001	78.092
36.002	83.192
37.060	85.530
38.002	80.884
39.002	87.891
40.004	86.418
41.002	76.846
42.057	85.868
43.059	83.125
44.002	83.979
45.002	87.191
46.002	77.069
47.061	87.715
48.002	79.482
49.002	90.291
50.002	80.092
51.002	87.191
52.002	76.592
53.002	83.792
54.002	83.992
55.065	89.539
56.003	84.746
57.003	76.892
58.003	84.292
59.114	55.890
