Time [s]	Current [nA]
0.000	43.766
1.000	81.892
2.002	88.614
3.000	87.166
4.000	84.991
5.005	85.151
6.089	79.789
7.066	92.314
8.000	85.430
9.000	85.791
10.059	80.540
11.000	90.745
12.064	82.511
13.000	85.996
14.003	86.033
15.001	86.250
16.001	84.892
17.001	85.191
18.062	83.309
19.064	79.533
20.001	92.307
21.001	84.592
22.001	85.391
23.064	82.494
24.001	86.224
25.002	86.391
26.001	86.978
27.001	84.891
28.064	80.519
29.001	86.224
30.064	82.776
31.001	90.919
32.001	84.292
33.001	84.692
34.060	81.956
35.003	82.813
36.072	90.440
37.060	77.624
38.060	84.192
39.002	89.588
40.067	82.433
41.004	85.477
42.001	85.949
43.063	78.994
44.003	90.097
45.009	86.757
46.087	79.677
47.060	83.753
48.065	85.265
49.060	84.514
50.064	83.358
51.061	87.754
52.064	89.024
53.060	77.803
54.064	83.358
55.064	84.476
56.007	90.553
57.003	81.217
58.006	87.329
59.082	37.914
