Time [s]	Current [nA]
0.000	36.092
1.000	85.491
2.000	83.992
3.000	82.992
4.000	83.892
5.001	80.392
6.001	85.691
7.001	76.392
8.001	83.392
9.000	82.374
10.000	82.192
11.000	85.991
12.000	85.591
13.060	78.483
14.000	79.460
15.001	90.291
16.001	78.392
17.001	83.892
18.001	78.192
19.001	82.892
20.001	82.992
21.060	84.600
22.063	86.332
23.060	78.327
24.072	82.699
25.002	80.724
26.002	81.692
27.090	84.275
28.001	83.526
29.001	85.192
30.001	75.392
31.060	83.655
32.051	82.131
33.001	81.045
34.001	86.291
35.002	75.792
36.002	82.192
37.002	89.191
38.002	75.492
39.002	86.191
40.002	77.892
41.063	85.665
42.060	81.135
43.002	78.761
44.001	85.277
45.001	85.291
46.002	74.693
47.002	83.092
48.002	81.492
49.002	88.591
50.002	78.092
51.002	85.091
52.063	78.220
53.060	81.537
54.060	80.592
55.003	81.839
56.012	84.630
57.003	75.573
58.003	81.892
59.003	80.392
60.003	80.992
61.006	41.073
