Time [s]	Current [nA]
0.000	63.294
1.000	75.592
2.058	76.930
3.000	85.236
4.064	83.168
5.001	77.129
6.001	77.792
7.001	84.592
8.001	83.092
9.001	81.992
10.001	82.692
11.001	85.991
12.063	81.913
13.082	82.327
14.001	80.514
15.001	82.574
16.001	82.492
17.001	78.692
18.001	86.291
19.001	75.692
20.001	82.192
21.001	82.492
22.063	88.974
23.077	76.521
24.001	92.090
25.002	76.892
26.002	83.192
27.002	82.492
28.002	85.891
29.061	82.334
30.002	81.076
31.002	81.992
32.001	90.181
33.001	79.492
34.001	83.892
35.002	86.891
36.002	76.292
37.002	82.892
38.002	90.691
39.002	79.192
40.002	87.191
41.002	76.192
42.057	85.300
43.002	87.399
44.002	75.992
45.003	85.391
46.003	86.791
47.003	76.292
48.009	89.951
49.003	77.055
50.064	89.152
51.002	84.213
52.002	76.792
53.002	83.292
54.002	83.392
55.003	83.692
56.003	80.992
57.003	36.696
58.003	39.796
59.003	61.794
60.003	68.093
61.003	71.293
62.061	41.773
