Time [s]	Current [nA]
0.000	62.394
1.000	80.992
2.000	73.093
3.060	80.652
4.000	76.482
5.001	78.492
6.001	81.192
7.001	74.793
8.058	82.206
9.001	76.769
10.061	81.124
11.063	82.826
12.058	75.168
13.061	82.544
14.000	77.415
15.001	80.492
16.001	80.992
17.001	85.191
18.001	84.392
19.001	74.693
20.001	80.392
21.001	81.592
22.063	87.750
23.001	81.762
24.001	74.393
25.062	85.557
26.002	77.865
27.001	81.573
28.055	80.447
29.060	83.872
30.001	80.651
31.001	81.892
32.001	81.992
33.001	84.592
34.070	80.441
35.002	81.624
36.002	83.092
37.002	81.492
38.002	82.092
39.002	85.091
40.002	79.792
41.064	86.244
42.061	83.241
43.063	81.828
44.064	86.205
45.002	80.782
46.002	78.992
47.002	82.892
48.002	82.392
49.002	82.992
50.002	85.791
51.002	85.691
52.063	79.822
53.002	79.971
54.002	83.092
55.003	83.392
56.061	81.372
57.003	83.537
58.003	83.892
59.003	82.692
60.003	82.792
61.138	50.215
