Time [s]	Current [nA]
0.000	12.533
1.000	88.591
2.000	80.492
3.086	88.665
4.000	86.972
5.063	90.292
6.001	83.787
7.001	82.392
8.001	88.491
9.001	87.591
10.000	85.377
11.000	85.391
12.000	81.292
13.000	86.591
14.057	84.003
15.000	91.719
16.001	85.591
17.001	85.591
18.001	88.691
19.063	85.114
20.001	84.426
21.001	85.791
22.001	85.591
23.001	88.391
24.001	79.492
25.001	89.891
26.002	86.191
27.001	85.277
28.058	81.070
29.001	93.628
30.001	81.492
31.001	87.691
32.059	80.049
33.001	90.968
34.001	85.891
35.063	84.346
36.002	86.253
37.002	86.591
38.002	85.391
39.002	85.591
40.002	87.991
41.002	82.292
42.002	86.191
43.002	86.391
44.002	85.891
45.001	84.776
46.062	83.294
47.002	84.779
48.063	81.613
49.002	90.087
50.002	84.292
51.002	80.092
52.002	88.091
53.002	85.691
54.002	85.591
55.002	85.091
56.003	84.092
57.003	80.792
58.003	87.291
59.071	30.521
