Time [s]	Current [nA]
0.000	26.451
1.006	84.385
2.000	78.664
3.068	77.146
4.000	89.476
5.000	82.392
6.001	82.492
7.001	78.992
8.001	86.091
9.001	83.592
10.001	75.292
11.001	89.191
12.001	77.992
13.001	83.092
14.000	85.277
15.000	76.192
16.001	82.292
17.001	82.292
18.001	84.392
19.001	84.891
20.060	78.274
21.001	86.176
22.001	81.992
23.001	76.192
24.001	84.492
25.001	84.492
26.002	74.992
27.002	88.791
28.002	74.893
29.002	84.192
30.002	86.291
31.002	75.392
32.001	82.374
33.001	81.192
34.001	82.392
35.001	85.491
36.002	76.392
37.002	83.592
38.002	82.292
39.002	83.192
40.002	85.091
41.002	78.092
42.002	82.592
43.064	78.900
44.002	52.127
45.002	35.796
46.069	49.526
47.003	62.735
48.003	72.293
49.002	75.368
50.061	77.424
51.002	83.414
52.063	81.142
53.002	88.596
54.002	82.092
55.002	82.992
56.003	81.892
57.065	81.630
58.003	82.081
59.062	78.746
60.003	79.482
61.061	84.396
62.065	85.350
63.018	39.765
