Time [s]	Current [nA]
0.000	37.025
1.000	82.092
2.000	76.392
3.000	82.992
4.000	86.991
4.999	82.474
6.000	81.892
7.000	81.192
8.000	77.292
9.000	84.492
10.000	81.692
11.000	81.492
12.059	77.424
13.000	78.526
14.000	84.392
15.000	85.191
16.001	74.593
17.001	80.992
18.001	81.392
19.001	83.992
20.001	76.992
21.001	81.092
22.001	81.092
23.000	80.372
24.000	80.892
25.063	79.653
26.001	82.614
27.001	81.792
28.067	82.731
29.066	80.973
30.001	82.024
31.001	77.092
32.001	81.492
33.001	82.192
34.001	81.492
35.001	80.992
36.002	83.692
37.064	81.254
38.002	78.990
39.002	81.192
40.063	76.712
41.001	81.442
42.001	82.792
43.001	83.992
44.001	82.292
45.001	81.192
46.002	80.492
47.002	76.692
48.002	84.492
49.002	75.492
50.064	83.984
51.002	78.457
52.002	84.392
53.002	81.592
54.056	79.309
55.002	78.639
56.003	81.192
57.003	80.992
58.055	80.030
59.061	83.292
60.002	79.269
61.002	80.992
62.055	29.627
