Time [s]	Current [nA]
0.000	3.098
1.060	81.218
2.059	84.576
2.999	82.651
4.059	79.992
4.999	39.677
6.000	40.496
7.003	58.419
8.003	69.093
9.001	76.145
10.000	86.178
11.067	83.403
12.000	86.701
13.000	86.091
14.003	86.033
15.005	89.502
16.001	90.352
17.083	80.953
18.000	82.980
19.000	78.692
20.000	78.292
21.003	79.653
22.000	74.416
23.000	78.692
24.062	80.218
25.003	74.993
26.003	81.692
27.005	82.327
28.007	79.832
29.001	74.741
30.001	79.492
31.001	80.992
32.004	81.846
33.005	83.208
34.001	74.992
35.001	80.092
36.005	80.251
37.002	83.442
38.002	82.792
39.003	75.817
40.001	82.056
41.005	80.470
42.001	82.221
43.004	84.937
44.007	85.335
45.001	76.149
46.064	84.549
47.064	80.792
48.083	83.996
49.072	75.624
50.002	84.615
51.002	83.192
52.063	84.817
53.001	79.097
54.005	85.350
55.004	86.578
56.063	80.332
57.002	78.586
58.002	82.192
59.004	82.527
60.002	87.867
61.004	85.520
62.002	76.746
63.208	44.772
