Time [s]	Current [nA]
0.000	41.531
1.000	93.591
2.000	93.091
3.000	96.190
3.999	88.480
5.000	93.591
6.000	93.191
7.000	91.391
8.000	91.291
9.000	94.491
10.059	91.209
11.000	90.002
12.062	94.153
13.061	91.683
14.000	91.684
15.001	95.390
16.001	85.092
17.001	91.591
18.001	90.891
19.001	91.891
20.001	93.791
21.001	94.591
22.000	84.977
23.000	90.591
24.000	90.891
25.000	94.491
26.001	91.691
27.001	86.691
28.001	91.391
29.001	90.591
30.001	91.191
31.001	93.391
32.001	94.791
33.001	85.091
34.001	90.191
35.002	90.691
36.002	90.791
37.002	94.691
38.002	86.991
39.001	91.783
40.062	93.205
41.001	86.892
42.001	93.191
43.001	86.691
44.001	91.291
45.064	93.682
46.063	91.082
47.002	86.999
48.002	95.090
49.002	85.591
50.002	91.291
51.002	90.291
52.002	90.391
53.002	93.691
54.013	93.265
55.003	36.093
