Time [s]	Current [nA]
0.000	28.170
1.000	58.494
2.000	58.594
3.000	59.994
4.067	57.820
5.001	56.586
6.001	58.594
7.063	54.985
8.062	58.353
9.000	59.056
10.000	60.394
11.000	59.394
12.000	58.494
13.000	58.794
14.000	56.694
15.001	59.894
16.001	55.694
17.001	59.494
18.001	59.294
19.001	58.894
20.001	61.394
21.001	55.694
22.001	59.794
23.001	59.094
24.001	59.094
25.002	60.594
26.001	61.355
27.001	56.194
28.001	59.394
29.067	60.407
30.066	58.753
31.001	59.138
32.001	55.694
33.001	59.794
34.001	59.094
35.002	58.694
36.002	57.894
37.002	23.298
38.063	26.388
39.067	37.845
40.068	45.850
41.002	49.460
42.002	55.994
43.002	56.594
44.001	61.155
45.068	63.877
46.063	61.602
47.002	58.567
48.057	59.615
49.064	63.251
50.002	58.949
51.064	56.586
52.002	63.853
53.002	56.694
54.059	58.840
55.003	64.044
56.003	59.794
57.003	59.894
58.003	59.994
59.003	57.194
60.003	62.394
61.002	60.354
62.002	60.294
63.002	59.194
64.002	56.094
65.090	55.468
66.003	66.697
67.003	55.894
68.003	59.094
69.003	59.294
70.059	57.570
71.003	64.930
72.003	54.495
73.003	59.994
74.003	59.194
75.003	60.694
76.004	60.794
77.004	56.994
78.004	59.994
79.003	60.354
80.003	59.794
81.057	57.584
82.003	59.931
83.003	59.994
84.003	58.794
85.003	58.894
86.005	59.634
87.004	9.408
