Time [s]	Current [nA]
0.000	26.648
0.999	61.055
1.999	63.994
2.999	57.194
3.999	61.694
5.000	67.893
6.000	59.394
7.000	63.994
8.000	63.094
9.000	58.294
10.000	63.594
11.000	62.794
12.063	61.706
13.000	64.134
14.000	64.894
15.001	63.694
16.001	62.494
17.001	65.693
18.000	57.752
19.000	66.293
20.000	64.294
21.000	63.694
22.059	61.278
23.067	66.958
24.000	65.695
25.000	65.593
26.001	64.094
27.001	61.894
28.001	21.298
29.001	28.197
30.001	39.796
31.001	44.596
32.001	55.194
33.001	58.294
34.001	67.493
35.002	69.193
36.001	61.055
37.001	67.193
38.001	66.593
39.092	66.354
40.001	70.950
41.001	62.994
42.001	67.193
43.001	66.693
44.001	67.393
45.001	69.493
46.002	63.294
47.002	67.093
48.002	67.893
49.002	66.293
50.002	66.993
51.002	64.094
52.002	69.993
53.001	62.556
54.001	66.393
55.001	67.293
56.002	69.293
57.006	67.921
58.069	64.340
59.002	65.481
60.002	66.793
61.002	66.493
62.002	69.393
63.002	63.494
64.055	63.906
65.002	69.476
66.003	66.293
67.003	63.594
68.003	67.293
69.003	69.593
70.003	66.793
71.002	66.960
72.002	67.093
73.002	63.294
74.002	69.593
75.002	67.693
76.003	67.193
77.003	66.693
78.003	61.294
79.003	34.297
