Time [s]	Current [nA]
0.000	35.734
1.000	65.194
2.000	71.193
3.000	69.193
4.000	68.193
5.054	64.571
6.001	71.693
7.058	61.489
8.001	75.284
9.001	62.794
10.001	67.893
11.059	70.220
12.001	67.934
13.000	64.758
14.000	67.593
15.000	69.593
16.001	66.893
17.001	68.093
18.063	66.754
19.001	68.650
20.001	68.793
21.001	67.893
22.001	68.593
23.001	69.793
24.001	63.794
25.001	69.693
26.002	69.493
27.002	67.393
28.002	67.893
29.002	64.294
30.002	70.293
31.001	68.662
32.002	68.325
33.001	67.361
34.001	63.694
35.001	68.193
36.002	69.293
37.002	61.194
38.002	66.993
39.002	67.193
40.002	70.793
41.002	64.294
42.002	67.893
43.002	67.693
44.002	67.193
45.002	68.893
46.062	64.866
47.003	68.112
48.002	68.762
49.002	67.793
50.002	68.193
51.002	63.994
52.002	70.193
53.002	67.993
54.002	66.993
55.002	67.693
56.003	67.493
57.003	65.393
58.003	70.693
59.061	64.927
60.003	71.330
61.003	68.093
62.003	64.094
63.003	70.293
64.003	68.193
65.003	61.994
66.003	67.761
67.003	67.893
68.003	70.093
69.003	70.393
70.003	63.194
71.003	67.693
72.003	67.593
73.003	69.693
74.223	31.226
