Time [s]	Current [nA]
0.000	32.200
1.000	68.793
2.000	62.694
3.000	65.993
4.000	67.193
5.000	66.460
6.000	65.993
7.000	62.794
8.000	68.693
9.000	60.594
10.000	65.094
11.060	67.069
12.062	68.855
13.000	65.345
14.000	60.394
15.001	65.893
16.001	65.093
17.001	70.893
18.001	61.994
19.001	68.993
20.001	60.694
21.001	65.593
22.001	65.593
23.000	67.961
24.000	65.493
25.001	67.193
26.001	59.694
27.001	64.394
28.001	64.494
29.001	67.493
30.001	68.193
31.001	60.094
32.001	64.294
33.001	70.093
34.077	60.217
35.077	24.722
36.068	27.747
37.061	40.580
38.002	47.073
39.002	55.794
40.001	61.255
41.001	68.193
42.001	60.994
43.057	67.796
44.001	63.765
45.002	65.993
46.002	69.093
47.002	68.593
48.002	60.194
49.002	64.994
50.002	70.393
51.002	62.194
52.002	67.993
53.002	59.294
54.002	66.193
55.003	65.193
56.003	70.993
57.003	61.794
58.002	67.661
59.002	59.994
60.002	64.594
61.002	69.993
62.002	61.594
63.002	67.493
64.002	65.293
65.002	65.493
66.003	65.793
67.056	61.627
68.003	65.463
69.003	67.893
70.014	65.078
71.003	60.358
72.003	64.894
73.003	67.493
74.003	66.593
75.002	60.555
76.003	65.893
77.003	65.193
78.003	65.194
79.003	13.099
