Time [s]	Current [nA]
0.000	48.195
1.000	56.994
2.000	57.394
3.000	57.294
4.000	59.694
5.000	58.994
6.001	53.495
7.001	56.894
8.001	57.194
9.063	61.764
10.000	57.518
11.000	52.495
12.065	60.463
13.065	57.194
14.000	55.075
15.000	55.194
16.001	59.094
17.001	58.394
18.001	57.394
19.062	54.566
20.001	58.354
21.001	57.194
22.001	59.994
23.001	57.994
24.004	57.422
25.001	52.252
26.002	58.994
27.002	59.294
28.001	52.247
29.051	58.946
30.001	54.626
31.064	61.142
32.001	54.957
33.001	54.995
34.001	58.094
35.001	56.894
36.002	62.194
37.064	56.492
38.002	56.391
39.002	52.995
40.002	56.694
41.002	56.394
42.091	57.845
43.056	55.124
44.002	62.679
45.001	52.447
46.002	56.794
47.062	57.824
48.002	56.590
49.061	55.707
50.013	59.868
51.002	52.068
52.002	61.594
53.002	52.095
54.002	58.694
55.002	58.994
56.003	52.195
57.003	56.394
58.003	61.294
59.003	53.595
60.003	58.694
61.003	51.595
62.003	57.594
63.002	56.251
64.060	57.745
65.002	57.001
66.003	58.394
67.003	52.495
68.003	56.494
69.003	61.094
70.003	53.695
71.003	57.594
72.003	56.494
73.003	51.895
74.003	55.994
75.062	57.272
76.004	56.682
77.004	58.794
78.004	51.695
79.004	60.294
80.003	51.046
81.003	58.294
82.003	57.294
83.003	52.995
84.003	55.794
85.003	60.594
86.004	51.095
87.066	59.975
88.058	11.188
