Time [s]	Current [nA]
0.000	42.496
1.000	57.094
2.000	56.894
3.000	55.494
4.000	55.994
5.001	57.394
6.001	51.795
7.001	58.094
8.001	56.294
9.001	55.394
10.001	55.494
11.060	54.574
12.001	55.892
13.000	56.951
14.000	55.094
15.000	54.995
16.001	55.394
17.001	52.695
18.001	56.694
19.058	53.353
20.001	58.637
21.001	55.594
22.001	57.594
23.001	53.495
24.001	56.494
25.002	56.394
26.002	55.494
27.002	55.494
28.002	53.195
29.002	57.794
30.002	56.594
31.001	55.350
32.001	55.394
33.001	57.894
34.001	52.795
35.001	56.494
36.002	56.094
37.002	55.194
38.058	52.267
39.002	60.905
40.068	54.685
41.002	54.705
42.002	55.394
43.002	55.694
44.002	57.894
45.003	50.995
46.003	57.094
47.003	56.294
48.002	55.350
49.002	55.294
50.002	57.294
51.002	52.995
52.002	56.494
53.002	55.794
54.002	55.194
55.002	57.194
56.003	51.195
57.003	58.294
58.003	56.094
59.003	55.394
60.003	55.094
61.003	57.194
62.065	55.268
63.061	50.999
64.054	55.684
65.061	55.263
66.003	59.442
67.003	53.395
68.003	33.397
69.003	21.498
70.003	30.997
71.003	39.396
72.003	47.695
73.064	49.665
74.088	55.268
75.003	55.841
76.004	56.694
77.004	56.594
78.069	55.112
79.004	58.069
80.004	56.494
81.004	55.994
82.004	55.994
83.003	58.353
84.065	55.456
85.082	55.605
86.004	54.550
87.004	55.494
88.059	52.696
89.059	58.394
90.065	58.642
91.061	51.802
92.057	0.502
