Time [s]	Current [nA]
0.000	5.054
1.000	81.792
1.999	83.675
2.999	84.792
3.999	81.092
5.054	83.957
6.000	90.477
7.000	84.792
8.000	84.192
9.000	87.691
10.000	80.292
11.000	85.391
12.000	85.391
13.000	83.692
14.000	83.792
15.000	87.891
16.001	80.092
17.001	85.591
18.001	84.192
19.001	83.992
20.000	87.178
21.000	78.192
22.000	86.691
23.000	86.491
24.000	84.792
25.000	84.492
26.001	87.891
27.001	80.692
28.001	85.591
29.001	84.292
30.001	84.492
31.064	82.588
32.001	82.489
33.001	87.791
34.001	85.191
35.001	84.292
36.002	84.192
37.001	88.480
38.001	80.392
39.001	85.391
40.001	84.292
41.001	84.492
42.001	87.491
43.001	78.692
44.001	87.191
45.001	84.891
46.002	84.192
47.002	84.292
48.060	83.073
49.002	85.448
50.002	85.291
51.060	79.482
52.002	88.632
53.002	84.092
54.002	87.491
55.056	75.966
56.002	89.843
57.002	83.192
58.002	83.492
59.002	80.192
60.055	23.170
