Time [s]	Current [nA]
0.000	12.590
1.012	77.463
2.062	72.374
3.059	68.599
4.075	73.319
5.066	57.368
6.072	27.234
7.070	38.774
8.000	51.608
9.000	61.094
10.010	64.647
11.064	66.597
12.066	74.743
13.057	71.335
14.059	76.439
15.002	79.504
16.072	70.367
17.067	74.666
18.070	73.472
19.001	75.073
20.060	72.514
21.071	73.089
22.067	72.985
23.071	72.104
24.064	76.729
25.002	71.604
26.062	70.653
27.001	71.452
28.066	73.795
29.013	76.655
30.063	72.183
31.001	72.381
32.067	68.942
33.071	71.706
34.068	72.811
35.002	71.697
36.070	68.345
37.068	74.942
38.063	73.259
39.071	70.132
40.015	76.264
41.002	68.889
42.002	74.393
43.067	67.129
44.065	72.137
45.013	75.494
46.122	64.466
47.057	71.544
48.061	73.299
49.014	75.753
50.074	67.069
51.002	70.359
52.058	69.501
53.061	73.273
54.082	70.806
55.064	73.591
56.012	73.305
57.067	67.481
58.003	72.001
59.062	69.587
60.074	70.942
61.069	70.948
62.067	70.935
63.002	71.651
64.072	67.657
65.002	76.336
66.074	66.287
67.068	71.019
68.076	70.033
69.003	72.161
70.061	68.991
71.066	71.038
72.003	15.580
