Time [s]	Current [nA]
0.000	33.683
1.000	52.195
2.000	60.794
2.999	55.650
3.999	58.394
5.000	57.694
6.000	57.794
7.000	59.894
8.000	60.694
9.000	53.195
10.000	59.594
11.000	58.094
12.062	60.258
13.056	55.025
14.000	57.833
15.001	58.094
16.057	59.748
17.001	54.126
18.060	56.274
19.001	57.486
20.000	59.353
21.057	55.624
22.000	60.015
23.000	57.394
24.000	59.194
25.063	57.056
26.001	55.325
27.001	57.294
28.001	57.494
29.001	59.694
30.001	52.095
31.001	59.994
32.001	57.594
33.001	56.794
34.001	58.194
35.002	59.994
36.002	54.695
37.002	58.194
38.001	57.051
39.001	56.894
40.001	58.394
41.001	58.294
42.001	55.095
43.001	58.594
44.001	57.494
45.002	57.294
46.002	54.395
47.002	59.894
48.060	54.909
49.002	59.973
50.002	56.694
51.002	57.394
52.002	59.994
53.002	54.695
54.002	52.995
55.001	50.245
56.002	50.395
57.002	51.095
58.002	47.495
59.002	50.395
60.002	50.295
61.002	49.495
62.002	49.795
63.002	51.995
64.002	47.395
65.003	50.695
66.003	49.595
67.003	50.395
68.003	47.395
69.003	51.095
70.003	52.095
71.003	52.595
72.003	51.495
73.002	51.146
74.002	51.995
75.002	47.995
76.003	52.895
77.003	51.395
78.003	52.395
79.066	51.453
80.003	50.368
81.003	55.294
82.059	50.090
83.003	56.138
84.059	50.563
85.003	58.681
86.004	51.695
87.059	51.464
88.004	57.772
89.004	54.695
90.003	55.750
91.003	16.998
