Time [s]	Current [nA]
0.000	4.413
0.942	69.738
1.942	61.894
3.008	67.535
4.004	65.455
4.998	58.747
5.997	67.629
7.006	67.189
8.000	58.948
9.006	63.910
9.942	69.331
11.034	59.243
12.008	68.576
12.942	64.448
14.001	60.900
14.942	68.537
15.943	58.694
16.943	66.893
18.007	62.776
19.026	64.370
20.010	66.050
20.943	62.266
22.009	65.941
23.006	60.676
24.003	66.994
24.943	61.802
25.943	63.657
27.019	64.770
27.943	66.011
28.943	60.194
29.943	64.394
31.002	60.523
31.943	67.793
33.002	60.051
34.002	65.693
34.943	63.437
36.003	59.956
37.006	64.002
38.002	64.251
39.007	66.859
39.944	61.893
40.944	59.594
42.006	66.001
42.944	60.762
43.943	62.957
44.999	67.986
45.944	62.706
47.006	60.446
48.006	62.394
49.000	62.066
50.015	65.018
50.944	61.243
52.005	47.969
53.009	37.745
53.944	47.482
55.007	59.504
56.003	58.227
57.005	64.864
58.010	63.476
59.010	61.494
60.006	61.640
60.944	59.482
61.944	63.794
63.000	60.505
64.009	62.927
65.010	62.194
66.010	61.894
67.003	58.806
68.006	64.600
69.029	60.991
69.945	62.003
71.011	63.596
71.945	59.737
72.994	60.718
74.007	63.468
75.002	57.281
75.946	65.635
77.003	58.272
78.004	63.930
78.945	60.887
80.013	63.851
80.998	12.588
