Time [s]	Current [nA]
0.000	46.641
1.000	63.594
2.065	58.116
3.066	60.733
4.067	60.633
5.000	62.480
6.007	62.320
7.001	58.847
8.001	63.294
9.001	60.794
10.001	61.294
11.001	63.394
12.055	55.782
13.063	62.791
14.001	66.624
15.000	61.956
16.001	56.294
17.001	63.694
18.001	45.195
19.001	35.296
20.057	51.415
21.001	60.375
22.001	58.194
23.059	60.296
24.073	62.518
25.001	60.985
26.067	63.468
27.071	61.747
28.059	58.699
29.002	67.438
30.002	55.894
31.002	61.094
32.001	61.255
33.001	63.594
34.001	64.094
35.001	60.994
36.002	61.194
37.002	61.294
38.058	58.422
39.064	64.606
40.002	61.508
41.063	58.618
42.002	59.525
43.062	63.296
44.002	62.121
45.002	63.494
46.003	62.894
47.003	57.094
48.065	63.930
49.064	62.056
50.061	58.169
51.063	63.866
52.002	60.164
53.002	61.094
54.002	61.694
55.002	62.494
56.088	64.694
57.063	58.456
58.064	62.032
59.003	58.780
60.063	63.767
61.057	58.143
62.063	63.314
63.003	61.058
64.063	63.107
65.003	58.611
66.004	61.194
67.061	59.975
68.003	66.978
69.003	56.694
70.003	60.994
71.003	66.693
72.060	55.907
73.062	63.666
74.003	59.930
75.069	64.125
76.004	60.101
77.067	63.964
78.062	57.482
79.068	63.214
80.061	55.886
81.004	63.832
82.163	38.909
