Time [s]	Current [nA]
0.000	50.895
1.000	68.393
1.999	71.765
3.052	68.179
3.999	66.730
5.062	71.085
6.000	66.305
7.000	68.693
8.000	71.693
9.060	67.918
10.000	66.483
11.000	68.093
12.000	68.393
13.000	71.093
14.000	64.694
15.080	70.151
16.001	68.397
17.001	68.593
18.067	70.912
19.000	69.554
20.000	65.893
21.000	68.993
22.058	64.171
23.058	67.893
24.000	68.677
25.000	69.193
26.059	66.723
27.063	68.419
28.063	67.793
29.063	68.493
30.063	72.693
31.060	64.086
32.001	67.581
33.062	69.739
34.062	67.593
35.062	62.156
36.002	74.035
37.066	67.474
38.001	65.769
39.051	64.660
40.001	71.572
41.057	65.713
42.057	64.394
43.001	72.450
44.001	66.693
45.059	63.759
46.077	66.987
47.002	69.074
48.002	39.796
49.002	37.796
50.062	55.089
51.002	57.760
52.056	62.897
53.060	68.220
54.082	66.334
55.068	68.420
56.002	64.126
57.062	69.050
58.059	63.384
59.060	69.723
60.062	66.560
61.002	63.185
62.063	68.513
63.058	63.009
64.056	68.831
65.073	66.922
66.003	65.800
67.063	68.578
68.064	65.927
69.058	62.871
70.003	73.009
71.003	61.994
72.002	65.559
73.002	66.593
74.002	68.393
75.280	29.050
