Time [s]	Current [nA]
0.000	14.268
1.000	60.794
2.057	55.907
3.000	61.076
4.000	57.994
5.000	58.994
6.058	55.907
7.000	58.062
8.000	57.794
9.000	57.694
10.000	56.894
11.061	56.168
12.000	58.354
13.059	55.141
14.000	61.205
15.000	57.094
16.001	57.594
17.054	56.974
18.063	59.657
19.056	52.462
20.001	60.523
21.001	57.194
22.001	59.794
23.001	54.795
24.001	57.494
25.000	57.852
26.001	56.994
27.001	56.394
28.001	59.194
29.001	53.995
30.001	58.194
31.001	56.694
32.001	56.994
33.001	58.894
34.075	56.605
35.062	51.618
36.002	61.058
37.064	54.326
38.002	55.325
39.002	58.394
40.002	58.594
41.062	53.957
42.057	56.979
43.001	54.444
44.001	58.494
45.001	58.194
46.002	54.195
47.067	59.149
48.002	55.075
49.061	58.918
50.002	56.849
51.062	56.598
52.063	58.635
53.002	54.734
54.002	57.394
55.002	58.494
56.003	58.494
57.003	54.495
58.003	57.494
59.003	56.494
60.002	56.851
61.002	59.294
62.002	59.094
63.002	53.395
64.002	57.494
65.002	56.894
66.003	57.394
67.003	59.894
68.003	54.295
69.003	58.394
70.003	57.394
71.003	56.994
72.003	54.395
73.003	59.294
74.003	58.194
75.003	57.694
76.004	57.594
77.003	57.452
78.003	54.795
79.003	59.794
80.003	58.294
81.061	54.153
82.003	60.716
83.057	56.446
84.003	57.288
85.003	58.094
86.066	54.514
87.004	61.188
88.004	6.599
