Time [s]	Current [nA]
0.000	26.228
0.948	42.295
1.944	45.176
3.004	56.126
3.944	55.633
4.946	60.373
5.952	61.685
6.952	54.395
7.945	60.618
8.945	59.094
10.009	60.708
10.945	59.609
11.946	56.038
12.944	59.914
14.004	60.560
15.005	59.294
15.945	59.356
16.947	60.373
17.945	55.606
18.945	59.894
19.946	58.436
20.945	59.353
21.945	61.094
22.945	61.494
23.945	54.395
24.945	59.094
26.008	60.540
27.012	54.875
28.018	59.736
28.948	60.317
29.945	59.372
30.945	58.494
31.945	58.094
32.945	60.594
33.945	61.294
34.945	54.495
35.947	57.736
36.951	63.340
37.946	54.165
38.946	61.194
39.949	60.413
40.946	54.057
41.946	58.494
42.947	58.635
43.946	60.555
44.946	60.594
45.948	53.541
46.947	59.353
47.946	58.052
49.005	59.767
50.006	54.740
50.950	63.765
52.011	55.979
53.006	58.185
54.005	58.252
54.947	57.744
55.948	60.894
56.947	53.048
58.012	60.463
58.947	55.396
59.949	57.779
61.004	57.151
61.949	59.042
62.947	58.912
64.006	59.201
64.947	55.361
65.948	60.094
66.947	59.854
67.954	59.279
68.947	54.375
69.947	57.994
70.947	58.194
71.947	60.594
72.950	60.811
73.947	53.555
74.947	57.894
75.948	58.694
76.952	59.058
78.026	55.860
78.948	61.165
79.948	59.794
80.948	59.094
82.006	60.674
82.947	58.655
83.950	61.011
85.009	56.422
86.013	27.089
