Time [s]	Current [nA]
0.000	47.916
1.005	59.198
2.041	59.260
3.000	57.658
3.996	61.038
5.002	59.596
6.001	58.753
6.942	63.012
8.004	59.034
8.997	56.691
10.002	60.292
11.003	59.534
11.942	57.289
13.020	60.662
13.942	61.165
14.942	56.194
16.008	60.933
17.004	58.930
17.943	56.437
18.943	60.794
19.996	57.924
21.025	57.623
21.943	60.343
22.999	56.623
23.997	59.012
24.942	64.650
26.004	58.335
27.000	53.609
28.009	64.017
28.999	53.429
30.004	61.586
31.026	59.974
32.005	61.689
32.943	57.137
33.943	59.294
34.943	59.294
36.005	57.770
37.005	62.394
38.001	54.513
38.944	62.136
40.001	55.718
40.943	64.537
41.943	54.795
43.001	58.690
44.005	60.253
45.006	59.494
45.944	63.640
47.006	60.352
47.944	59.589
49.003	56.840
50.003	58.994
50.944	57.593
52.035	59.847
53.001	58.172
53.944	65.741
55.005	57.299
56.006	59.294
56.945	57.076
57.944	60.755
58.998	57.964
59.944	57.182
60.944	59.794
62.002	60.958
63.005	58.319
64.007	61.371
65.001	56.131
66.006	60.054
67.007	58.036
68.007	58.694
69.010	61.011
70.004	55.427
71.021	58.008
72.010	60.661
72.945	56.037
74.008	61.424
75.004	55.316
75.945	59.781
77.003	56.422
77.945	61.565
78.945	57.794
80.004	57.029
81.035	59.257
81.945	59.005
82.945	59.394
84.010	50.230
