Time [s]	Current [nA]
0.000	31.831
1.063	59.919
2.000	57.412
3.000	56.594
4.000	59.794
5.001	59.194
6.001	58.994
7.001	61.294
8.000	62.056
9.000	54.895
10.000	59.094
11.000	64.394
12.000	54.195
13.000	61.494
14.000	61.594
15.061	56.504
16.061	59.194
17.001	57.122
18.001	60.894
19.060	58.257
20.001	57.699
21.001	59.894
22.001	58.894
23.001	59.294
24.063	63.271
25.056	56.043
26.001	57.560
27.001	58.694
28.001	58.794
29.001	61.094
30.059	57.367
31.001	57.001
32.066	61.872
33.001	56.572
34.001	58.994
35.001	61.194
36.002	55.594
37.002	58.994
38.002	57.394
39.002	57.194
40.002	60.194
41.002	53.895
42.002	60.894
43.058	55.771
44.001	61.500
45.061	54.669
46.060	60.855
47.064	60.751
48.002	56.498
49.002	58.094
50.056	55.023
51.002	63.947
52.002	54.195
53.002	60.694
54.002	59.094
55.002	57.794
56.061	54.815
57.004	64.257
58.003	55.150
59.003	58.994
60.002	58.252
61.059	54.772
62.002	61.500
63.002	55.694
64.002	60.094
65.002	59.194
66.003	57.594
67.003	57.294
68.061	56.705
69.003	58.805
70.003	59.094
71.003	57.794
72.003	57.894
73.003	57.594
74.003	55.794
75.003	59.794
76.004	58.194
77.004	42.796
78.068	31.388
79.058	39.188
80.003	48.990
81.003	53.895
82.060	53.826
83.003	60.333
84.058	55.066
85.003	64.015
86.004	55.494
87.004	22.398
