Time [s]	Current [nA]
0.000	23.102
1.000	54.095
2.000	49.895
3.000	52.495
4.000	52.095
5.001	52.395
6.001	52.595
7.001	54.994
8.001	49.795
9.001	52.995
10.001	52.095
11.062	54.283
12.001	52.071
13.001	54.895
14.000	48.143
15.000	53.695
16.001	52.295
17.001	52.095
18.059	45.837
19.001	24.838
20.001	31.597
21.001	39.596
22.001	44.796
23.055	48.382
24.001	54.963
25.065	50.418
26.002	51.009
27.002	52.395
28.002	52.795
29.002	54.795
30.002	49.995
31.002	53.395
32.001	52.647
33.001	52.595
34.001	54.295
35.001	53.495
36.002	50.095
37.066	54.412
38.002	50.422
39.002	52.595
40.002	54.395
41.002	54.495
42.002	48.795
43.064	54.044
44.002	50.635
45.002	52.695
46.003	54.395
47.003	49.395
48.003	53.095
49.002	52.347
50.002	52.395
51.002	54.295
52.002	49.595
53.002	53.395
54.002	52.295
55.002	52.295
56.003	52.295
57.003	54.695
58.003	48.995
59.064	54.754
60.064	51.995
61.003	50.368
62.003	53.995
63.003	53.695
64.003	47.695
65.003	52.795
66.004	51.395
67.003	52.047
68.003	54.095
69.003	49.395
70.003	52.795
71.003	51.895
72.003	51.595
73.003	53.795
74.003	53.595
75.065	50.325
76.004	50.474
77.004	51.495
78.004	51.395
79.004	53.595
80.004	48.895
81.004	52.395
82.065	53.246
83.004	49.622
84.003	53.548
85.003	52.395
86.004	48.895
87.004	51.995
88.065	53.152
89.004	49.942
90.004	53.595
91.004	48.695
92.004	52.295
93.004	51.695
94.065	53.623
95.004	50.794
96.064	50.325
97.005	52.598
98.059	0.379
