Time [s]	Current [nA]
0.000	52.695
1.000	47.195
2.000	32.897
3.000	42.596
3.999	50.445
4.999	51.495
6.075	61.482
7.063	53.132
8.000	62.320
9.000	57.994
10.000	58.194
11.000	56.194
12.058	58.123
13.000	62.733
14.000	58.994
15.000	58.794
16.001	60.794
17.001	54.195
18.001	61.694
19.001	59.694
20.001	58.894
21.001	59.194
22.000	56.251
23.057	57.989
24.000	63.832
25.064	55.686
26.001	63.814
27.085	55.898
28.001	61.129
29.001	61.594
30.001	59.494
31.001	59.194
32.001	59.494
33.001	56.194
34.055	58.913
35.001	63.419
36.002	58.894
37.002	59.694
38.002	59.194
39.001	56.751
40.001	61.794
41.001	60.194
42.001	59.294
43.001	59.294
44.001	56.094
45.001	61.594
46.061	57.029
47.002	63.331
48.002	59.294
49.002	59.494
50.002	57.094
51.002	62.294
52.002	61.294
53.002	59.894
54.002	60.194
55.002	56.994
56.062	58.162
57.002	65.844
58.002	60.794
59.002	60.194
60.060	56.894
61.002	60.822
62.002	63.294
63.002	61.094
64.002	60.594
65.002	60.594
66.003	56.894
67.087	62.540
68.066	58.830
69.065	60.454
70.003	64.386
71.064	57.016
72.068	63.340
73.003	61.063
74.002	61.555
75.065	57.339
76.065	61.194
77.003	59.802
78.003	63.094
79.003	63.494
80.003	57.094
81.003	60.194
82.003	60.694
83.003	62.594
84.003	57.394
85.003	6.199
