Time [s]	Current [nA]
0.000	50.495
1.000	57.494
2.075	56.180
3.062	62.304
4.056	60.960
5.001	63.341
6.058	56.097
7.001	60.545
8.060	58.446
9.001	58.868
10.001	59.694
11.000	59.353
12.000	59.994
13.000	60.594
14.000	61.994
15.000	54.795
16.001	59.594
17.001	59.194
18.001	61.894
19.001	61.994
20.001	55.594
21.001	59.994
22.001	59.894
23.001	60.294
24.001	62.594
25.001	61.994
26.062	57.070
27.060	60.114
28.053	60.216
29.001	59.382
30.059	59.068
31.001	58.381
32.067	62.283
33.001	57.917
34.001	60.094
35.001	62.894
36.002	57.094
37.057	57.625
38.002	63.592
39.002	59.594
40.002	56.594
41.002	61.294
42.002	59.894
43.002	61.094
44.002	59.694
45.002	59.894
46.002	56.851
47.064	58.186
48.002	64.386
49.002	59.694
50.002	59.594
51.002	56.194
52.002	60.894
53.002	60.794
54.002	55.494
55.002	59.494
56.003	59.894
57.003	61.794
58.063	58.296
59.003	58.505
60.003	59.594
61.003	59.794
62.003	60.894
63.002	59.854
64.002	57.994
65.065	62.706
66.003	57.457
67.003	59.994
68.003	61.794
69.003	56.694
70.058	57.056
71.003	62.216
72.003	59.594
73.003	59.094
74.003	61.294
75.003	56.294
76.066	57.151
77.066	59.294
78.066	58.794
79.070	62.444
80.004	59.844
81.060	56.907
82.003	63.090
83.003	59.394
84.003	6.999
