Time [s]	Current [nA]
0.000	35.396
1.000	53.895
2.000	52.895
3.000	27.397
4.000	34.197
5.000	43.196
6.001	47.795
7.000	51.346
8.065	51.450
9.000	53.898
10.000	53.995
11.000	53.895
12.058	50.846
13.000	57.107
14.000	50.995
15.000	56.394
16.054	51.847
17.001	51.737
18.001	58.394
19.001	51.495
20.064	52.676
21.001	53.463
22.001	54.495
23.001	53.895
24.001	53.795
25.000	56.050
26.001	55.494
27.068	50.979
28.001	52.835
29.060	55.046
30.001	53.236
31.001	54.495
32.001	50.795
33.001	54.195
34.001	53.695
35.001	53.695
36.002	55.594
37.002	55.194
38.002	49.495
39.002	53.195
40.002	57.794
41.002	48.795
42.001	55.250
43.001	55.194
44.059	50.846
45.001	51.269
46.002	53.395
47.002	55.194
48.002	55.294
49.002	49.095
50.002	53.295
51.002	57.294
52.002	48.195
53.002	55.694
54.002	55.694
55.002	49.195
56.003	53.495
57.003	53.295
58.003	55.394
59.003	55.294
60.002	48.644
61.002	54.195
62.002	53.095
63.002	52.795
64.002	54.795
65.002	54.795
66.003	49.295
67.003	53.395
68.003	57.494
69.065	52.349
70.003	52.767
71.003	48.995
72.003	53.495
73.003	52.995
74.003	53.195
75.003	55.394
76.004	50.895
77.003	54.049
78.003	53.295
79.003	53.995
80.003	55.094
81.003	48.595
82.003	55.494
83.003	53.495
84.003	52.995
85.003	53.095
86.004	54.795
87.004	49.895
88.061	51.083
89.004	56.092
90.004	53.195
91.004	54.195
92.004	50.795
93.004	55.794
94.004	54.095
95.003	15.814
