Time [s]	Current [nA]
0.000	7.488
1.000	52.695
2.000	55.194
3.061	54.660
4.000	59.312
5.001	50.495
6.001	54.995
7.001	57.394
8.058	53.921
9.001	53.759
10.000	55.250
11.000	54.695
12.000	55.794
13.000	56.094
14.000	52.095
15.000	55.095
16.001	54.495
17.001	54.395
18.001	56.494
19.001	51.895
20.070	55.935
21.001	53.163
22.001	54.095
23.100	54.590
24.063	53.577
25.001	54.899
26.002	55.194
27.001	54.649
28.001	55.095
29.001	56.594
30.001	51.795
31.001	55.294
32.001	54.595
33.001	54.095
34.001	54.295
35.061	53.630
36.002	54.936
37.002	54.795
38.002	53.695
39.002	54.595
40.002	51.095
41.002	55.994
42.002	54.495
43.002	55.194
44.002	53.895
45.001	54.449
46.002	51.395
47.002	56.394
48.002	53.995
49.002	53.095
50.002	53.795
51.002	50.995
52.002	54.595
53.002	56.794
54.002	54.995
55.002	54.295
56.003	54.495
57.003	52.095
58.003	56.794
59.003	54.695
60.003	54.095
61.003	54.195
62.082	52.173
63.002	54.886
64.002	57.294
65.062	51.459
66.071	54.702
67.003	53.321
68.003	56.894
69.003	51.695
70.003	55.794
71.003	54.395
72.003	54.295
73.003	54.695
74.068	53.610
75.003	56.251
76.004	54.695
77.004	54.295
78.004	54.195
79.062	52.830
80.003	54.936
81.003	54.695
82.064	52.115
83.003	58.354
84.003	54.994
85.003	51.095
86.004	56.494
87.004	55.294
88.004	54.495
89.063	51.553
90.061	56.808
91.059	52.199
92.097	44.408
