Time [s]	Current [nA]
0.000	31.696
1.000	66.693
1.999	60.755
2.999	64.494
3.999	63.494
5.000	63.394
6.062	61.576
7.000	61.401
8.000	65.893
9.000	63.494
10.000	63.694
11.000	63.194
12.000	65.293
13.000	59.694
14.000	63.394
15.001	63.394
16.001	62.694
17.001	65.293
18.001	57.094
19.001	66.493
20.000	55.350
21.059	30.592
22.000	45.160
23.000	49.295
24.000	59.894
25.000	55.894
26.001	61.294
27.001	62.594
28.080	66.536
29.001	63.077
30.064	62.741
31.001	61.680
32.001	62.794
33.001	62.694
34.001	59.094
35.002	65.193
36.002	62.494
37.001	63.757
38.001	62.694
39.001	62.794
40.001	59.494
41.001	65.493
42.001	63.694
43.001	62.594
44.001	62.594
45.001	58.894
46.002	65.293
47.002	63.094
48.002	64.394
49.002	62.694
50.002	62.794
51.002	59.794
52.002	64.794
53.065	59.166
54.001	66.980
55.001	57.694
56.002	64.694
57.084	59.698
58.002	69.710
59.002	58.594
60.002	62.894
61.002	62.694
62.002	65.194
63.002	59.394
64.067	65.721
65.069	62.831
66.003	60.915
67.003	65.493
68.003	63.394
69.003	59.694
70.003	63.994
71.003	62.994
72.002	62.957
73.060	61.903
74.002	63.157
75.065	60.634
76.064	63.057
77.003	66.660
78.003	57.194
79.069	67.723
80.066	59.472
81.056	25.250
