Time [s]	Current [nA]
0.000	1.382
1.000	60.400
2.059	62.606
3.000	61.637
4.000	64.100
5.000	62.100
6.000	62.600
7.000	65.400
8.000	65.700
9.000	58.100
10.058	63.989
11.000	66.561
12.000	59.500
13.000	63.900
14.002	64.271
14.999	57.673
15.999	62.400
16.999	62.200
17.999	65.700
18.999	64.400
19.999	57.800
20.999	61.800
21.999	62.300
23.067	66.760
23.999	60.622
24.999	60.200
25.999	62.600
27.059	64.151
27.999	59.681
29.061	66.384
29.999	62.473
30.999	57.700
31.999	61.700
32.998	67.968
33.998	56.900
34.998	65.600
35.998	64.900
36.998	57.100
38.053	63.602
38.998	65.397
39.998	58.000
40.998	64.900
41.998	57.100
42.998	63.300
43.998	62.500
45.052	64.421
46.059	65.243
46.998	63.365
47.998	58.500
48.998	63.100
49.997	62.963
51.059	67.514
51.997	63.220
53.001	63.645
53.997	58.534
54.997	62.600
56.054	64.995
56.997	63.521
58.053	62.595
58.997	61.970
59.997	62.900
60.997	62.800
61.997	65.400
62.997	64.300
63.997	59.400
64.997	63.200
65.997	62.700
67.054	64.995
67.996	63.482
69.050	62.429
69.996	61.628
70.996	62.600
72.054	64.745
72.996	61.147
74.057	67.389
74.996	63.046
75.996	58.400
76.996	62.600
78.059	65.193
78.996	63.714
80.021	46.927
