Time [s]	Current [nA]
0.000	47.970
0.940	62.447
1.940	65.300
2.940	67.500
3.940	66.300
4.940	62.500
6.000	67.736
6.940	62.128
7.940	65.600
8.940	67.100
9.940	67.500
10.940	60.400
11.940	64.900
12.940	64.600
13.940	65.200
14.940	67.000
16.001	64.373
16.940	63.791
17.999	66.761
18.939	62.234
19.939	66.800
20.939	67.100
21.939	60.000
22.939	64.300
23.939	64.500
24.939	64.600
25.939	67.900
26.939	61.100
27.939	65.500
28.939	63.900
29.939	64.400
30.939	66.900
31.939	66.900
32.939	59.700
33.939	65.500
34.938	63.864
35.938	64.400
36.938	67.300
37.938	60.700
38.999	67.107
39.938	61.981
40.938	64.600
41.938	67.400
42.938	66.600
43.938	58.900
44.938	65.800
46.001	67.545
46.993	58.468
47.996	66.600
49.000	67.928
49.995	59.397
50.995	64.300
51.937	68.259
52.993	62.973
53.937	62.500
54.937	66.200
55.994	61.211
56.937	67.656
57.937	64.200
58.937	60.400
59.937	45.500
60.937	35.400
61.994	44.371
62.994	54.900
64.005	60.732
65.013	62.500
65.937	64.502
66.937	63.900
67.937	63.000
68.937	63.300
69.936	59.960
70.992	62.689
71.936	68.538
72.936	63.400
73.936	62.700
75.015	59.592
75.936	64.821
76.936	65.700
77.936	64.200
78.936	18.300
