Time [s]	Current [nA]
0.000	45.146
0.939	63.259
1.939	60.900
2.939	58.000
3.939	33.000
4.939	41.200
5.939	51.600
6.939	59.600
7.938	57.858
9.003	64.038
10.002	62.663
11.003	62.637
11.938	63.209
12.938	60.100
13.938	63.700
14.938	62.500
15.938	63.200
17.008	59.439
18.003	66.734
18.938	63.529
19.938	63.900
20.940	63.673
21.938	57.916
22.992	62.049
23.938	68.393
24.937	57.057
26.002	65.258
26.937	60.428
27.937	62.400
28.998	61.169
29.994	64.759
30.937	61.400
31.937	61.900
33.003	64.071
33.993	58.889
35.012	63.101
35.937	62.486
36.937	63.200
37.937	62.600
38.937	62.900
39.937	65.200
40.937	59.100
41.937	63.300
42.936	62.062
43.936	61.700
44.936	64.700
45.936	63.200
46.936	59.900
47.936	63.500
48.998	66.008
49.936	60.981
50.936	65.100
51.936	59.700
52.936	64.100
53.936	62.700
54.999	58.984
55.940	68.119
56.936	59.137
57.936	65.500
58.936	63.400
59.935	62.663
60.935	62.800
61.935	59.800
62.935	65.300
63.935	57.200
64.935	63.400
65.935	62.700
66.935	63.300
67.935	65.700
68.935	58.900
69.935	63.600
70.935	62.400
71.935	61.700
72.935	58.700
73.935	64.600
74.935	62.500
75.935	62.700
76.935	62.400
77.934	62.062
78.934	59.600
79.934	64.900
81.975	14.405
