Time [s]	Current [nA]
0.000	62.194
1.000	68.193
2.000	69.893
3.000	68.993
4.000	62.294
5.000	66.893
6.001	66.693
7.001	68.193
8.001	67.793
9.000	63.657
10.061	68.325
11.000	63.785
12.055	57.435
13.062	37.037
14.057	44.518
15.000	54.607
16.001	60.594
17.001	69.593
18.098	61.252
19.058	63.952
20.001	72.421
21.001	60.994
22.001	65.793
23.057	67.702
24.001	66.519
25.001	69.493
26.002	61.694
27.001	66.260
28.066	67.599
29.001	70.153
30.001	62.394
31.001	68.193
32.071	63.171
33.061	66.559
34.001	63.504
35.001	68.193
36.002	68.793
37.002	60.194
38.002	66.893
39.002	65.493
40.002	65.293
41.064	70.709
42.002	65.772
43.002	61.594
44.001	65.659
45.001	71.193
46.065	65.280
47.002	65.628
48.002	61.394
49.002	66.393
50.002	65.393
51.002	65.393
52.002	67.993
53.061	64.772
54.015	70.538
55.002	61.291
56.061	67.763
57.003	66.129
58.003	66.893
59.003	63.194
60.003	66.293
61.003	65.693
62.002	71.464
63.064	65.530
64.058	62.770
65.060	66.727
66.003	70.301
67.003	67.593
68.003	62.594
69.003	69.493
70.003	70.593
71.011	68.247
72.064	64.476
73.003	65.489
74.003	69.793
75.003	70.093
76.152	33.533
