Time [s]	Current [nA]
0.000	57.300
1.000	62.200
2.000	63.200
3.062	61.111
4.000	59.275
5.000	61.000
6.000	61.400
7.000	57.400
8.000	61.700
9.000	63.800
10.000	62.400
11.000	60.600
11.999	61.061
12.999	58.200
13.999	63.500
14.999	61.400
15.999	60.400
16.999	60.700
17.999	62.200
18.999	56.100
19.999	63.600
20.999	61.200
22.055	57.292
22.999	64.725
23.999	57.600
25.061	65.254
25.999	59.488
26.999	60.300
28.057	57.656
28.998	64.506
30.058	59.906
30.998	61.064
31.998	60.900
32.998	60.900
33.998	61.500
35.054	59.564
35.998	61.229
37.084	62.707
37.998	59.847
38.998	60.400
39.998	60.900
40.998	58.100
42.060	65.160
42.998	59.488
43.998	60.600
44.998	61.000
45.998	58.100
46.997	62.763
47.997	61.700
48.997	61.400
49.997	61.000
50.997	60.800
51.997	62.500
53.059	60.264
53.997	59.275
54.997	60.600
55.997	61.200
56.997	57.300
57.997	61.200
58.997	63.500
59.997	60.900
60.997	59.900
61.997	59.900
62.997	62.000
63.996	57.457
64.996	61.100
65.996	59.900
66.996	60.200
67.996	55.600
68.996	62.200
69.996	63.300
70.996	60.800
71.996	60.500
72.996	60.200
74.051	59.147
74.996	60.635
75.996	61.700
77.053	57.332
77.996	64.157
78.996	61.100
79.996	57.600
80.996	63.200
81.995	23.023
