Time [s]	Current [nA]
0.000	2.083
0.940	60.745
1.940	64.900
2.940	65.800
3.940	57.900
5.001	63.996
5.942	66.631
7.002	61.981
8.019	56.637
8.941	69.197
9.939	56.914
10.939	61.900
11.939	62.400
12.939	64.700
13.939	64.900
14.939	57.100
15.939	61.900
16.939	67.500
18.001	61.770
18.939	59.595
19.939	59.300
20.939	62.100
21.939	62.100
22.939	67.400
23.939	59.400
24.997	61.153
26.001	63.944
26.938	59.765
27.938	61.700
28.938	61.900
29.938	65.200
30.938	64.400
31.947	62.537
32.938	57.316
33.938	61.900
34.938	64.600
35.938	64.300
36.943	62.289
37.938	57.186
38.938	61.700
39.938	67.700
41.000	61.394
41.938	61.834
42.938	57.900
43.996	64.272
44.994	61.523
45.937	34.889
46.937	38.800
47.937	47.300
48.937	48.800
49.937	57.000
50.940	64.207
51.937	58.375
52.937	61.200
53.997	65.943
54.937	60.745
55.938	68.531
56.937	60.360
57.937	65.200
58.995	61.248
59.937	62.208
60.936	63.463
61.936	63.300
62.936	65.400
63.936	66.200
64.936	58.800
65.936	63.200
66.936	63.500
67.936	64.400
69.015	67.192
69.936	64.169
70.936	58.600
71.936	63.500
72.936	63.400
73.936	65.600
74.936	66.000
75.936	58.900
76.936	63.200
77.936	68.800
78.935	57.758
79.992	63.292
80.935	69.459
82.404	5.174
