Time [s]	Current [nA]
0.000	8.479
1.000	65.100
2.000	66.600
3.000	66.600
4.000	59.500
5.000	63.600
6.000	69.000
7.000	60.000
8.000	66.500
9.000	58.000
10.000	63.600
11.000	63.300
12.000	68.700
13.000	59.900
14.005	35.323
15.061	37.784
16.000	47.923
16.999	56.056
17.999	62.400
18.999	64.900
19.999	57.700
20.999	64.600
21.999	63.200
22.999	63.400
23.999	65.700
24.999	65.500
25.999	58.000
27.055	64.394
28.059	62.649
28.999	64.468
29.999	65.000
31.063	60.244
31.999	63.034
32.999	63.300
33.998	63.163
34.998	66.400
35.998	65.500
36.998	58.700
37.998	62.600
38.998	68.500
39.998	60.100
40.998	64.300
41.998	65.600
42.998	58.600
43.998	63.200
44.998	68.700
45.998	59.900
47.057	62.134
47.998	62.699
48.998	63.000
49.998	63.000
51.072	66.667
51.997	61.514
52.997	65.900
53.997	58.300
54.997	68.500
55.997	57.500
56.997	64.800
57.997	66.400
58.997	58.500
60.053	65.436
60.997	66.420
61.997	58.000
62.997	66.100
63.997	65.600
64.997	58.800
65.997	63.000
66.997	68.100
68.059	62.618
68.996	63.501
69.996	57.900
70.996	62.900
72.058	64.783
72.996	60.981
74.058	67.420
74.996	63.220
75.996	57.700
76.996	68.300
77.996	62.800
78.996	59.300
79.996	65.800
81.060	7.237
