Time [s]	Current [nA]
0.000	57.771
0.999	64.364
1.999	63.600
2.999	63.900
3.999	60.000
4.999	65.900
6.061	59.510
6.999	67.484
7.999	63.700
8.999	60.200
10.001	65.669
10.999	57.415
11.999	64.200
12.999	62.900
13.999	62.400
14.999	65.400
15.999	59.000
16.999	63.600
17.998	62.763
18.998	63.300
19.998	65.400
20.998	57.400
22.060	67.137
22.998	60.128
24.049	59.277
24.998	65.964
25.998	59.100
26.998	64.900
27.998	63.300
29.060	58.663
30.067	61.867
30.998	62.084
31.998	63.400
32.998	65.600
34.061	59.643
34.998	61.046
36.062	64.474
36.997	62.460
37.997	58.800
38.997	62.400
39.997	62.400
40.997	61.900
42.098	62.489
42.997	64.627
44.057	61.038
44.997	60.000
45.997	62.200
46.997	62.300
47.997	64.800
48.997	59.100
49.997	62.200
50.997	61.800
51.997	62.300
52.996	62.362
54.005	63.627
55.053	56.202
55.996	66.808
57.061	57.840
58.054	62.135
59.057	65.204
60.054	57.673
61.078	60.352
62.056	63.088
63.052	61.647
64.050	61.623
65.058	64.286
66.055	57.172
67.056	62.038
68.055	61.562
69.057	61.277
70.058	64.236
70.995	59.979
71.995	57.800
72.995	62.400
73.995	61.600
74.995	61.100
75.995	63.900
76.995	58.300
77.995	53.500
78.995	31.800
79.995	41.900
81.152	36.474
