Time [s]	Current [nA]
0.000	9.651
1.057	62.731
2.000	69.784
3.000	65.907
4.066	63.890
4.999	65.531
5.999	65.107
7.061	61.117
7.999	69.090
8.999	61.606
9.999	67.607
10.999	65.707
12.061	61.306
12.998	68.950
13.998	64.606
14.997	61.706
15.997	66.707
16.997	65.107
17.997	63.906
18.997	64.306
19.997	61.006
20.997	67.107
22.079	66.458
22.997	63.841
23.997	64.406
24.997	64.506
25.996	61.206
26.996	67.107
27.996	65.707
29.058	60.646
29.996	68.344
30.995	60.266
31.995	64.306
33.058	62.095
33.995	68.630
34.995	64.006
35.994	64.006
36.994	60.906
37.994	66.907
39.057	60.683
39.994	68.310
40.994	64.006
41.994	59.506
42.994	64.806
43.994	66.707
44.993	58.806
45.993	63.706
46.993	63.606
47.992	65.672
48.992	60.106
49.992	64.406
50.992	63.306
51.992	63.406
52.992	63.206
53.992	66.607
54.991	60.406
55.991	64.106
56.991	63.706
57.991	64.006
58.991	65.907
59.991	60.206
60.991	63.206
61.991	63.706
62.991	63.606
63.991	63.906
64.990	65.907
65.989	60.667
66.989	64.006
67.989	62.306
69.050	65.134
69.989	63.265
70.989	65.607
72.062	58.720
72.989	63.221
73.989	63.006
74.989	63.506
75.988	65.507
76.988	65.407
77.988	58.706
78.988	6.801
