Time [s]	Current [nA]
0.000	36.169
1.000	62.794
2.000	68.193
3.059	62.978
4.000	69.494
5.001	65.493
6.055	64.415
7.000	63.062
8.000	69.093
9.062	61.952
10.000	69.609
11.000	65.693
12.000	62.394
13.054	63.846
14.000	69.972
15.062	61.351
16.001	69.642
17.001	65.893
18.001	61.794
19.059	63.982
20.001	69.951
21.001	65.093
22.001	65.293
23.001	61.694
24.000	66.960
25.001	65.293
26.001	65.793
27.001	64.494
28.001	64.394
29.001	61.494
30.001	67.193
31.058	62.056
32.001	68.710
33.001	64.694
34.001	61.394
35.002	66.893
36.002	64.994
37.002	65.293
38.002	63.994
39.002	63.994
40.002	61.194
41.002	67.393
42.001	65.659
43.001	64.494
44.058	60.826
45.002	64.787
46.002	65.293
47.002	67.193
48.002	65.193
49.060	60.391
50.002	68.040
51.007	66.063
52.002	61.200
53.002	64.994
54.002	63.594
55.062	60.428
56.003	70.556
57.003	58.394
58.003	66.693
59.002	64.358
60.064	59.787
61.002	67.584
62.002	60.594
63.002	66.393
64.002	64.993
65.002	63.694
66.003	63.394
67.003	64.094
68.003	60.094
69.003	33.797
70.003	39.496
71.003	50.195
72.003	56.294
73.062	60.145
74.003	61.737
75.003	62.894
76.004	63.494
77.003	62.756
78.003	63.894
79.003	20.898
