Time [s]	Current [nA]
0.000	37.214
1.000	60.300
1.999	66.767
2.999	67.500
4.060	61.640
5.054	64.688
5.999	61.799
6.999	66.300
8.086	66.881
8.999	64.622
10.066	61.012
10.999	62.272
11.999	69.300
12.999	61.300
13.999	67.000
14.999	59.400
15.999	64.200
16.999	69.700
17.999	58.900
18.999	66.500
19.998	66.967
20.998	59.000
21.998	55.300
22.998	32.100
23.998	43.200
24.998	54.200
25.998	52.900
26.998	60.800
27.998	61.700
29.074	64.591
29.998	65.584
30.998	65.600
32.055	61.306
32.998	60.870
33.998	63.900
34.998	65.800
35.998	65.500
37.002	64.243
37.997	58.693
38.997	63.900
39.997	68.700
40.997	60.500
41.997	66.100
42.997	59.000
43.997	63.300
44.997	68.500
45.997	60.500
46.997	66.300
48.053	60.985
48.997	61.441
49.997	63.300
50.997	63.700
51.997	66.400
52.997	66.600
53.997	59.400
54.996	63.764
55.996	69.100
56.996	60.300
57.996	64.700
59.055	62.701
59.996	62.806
60.996	63.800
61.997	69.331
62.996	61.161
63.996	67.100
64.996	59.300
65.996	63.800
67.052	65.814
67.996	63.030
68.996	65.700
69.996	62.100
70.996	64.600
71.995	63.664
72.995	64.100
74.049	62.998
74.995	70.507
75.995	58.900
76.995	69.200
77.995	63.800
78.995	58.200
79.995	7.800
