Time [s]	Current [nA]
0.000	45.946
0.938	50.528
2.020	48.794
2.999	54.234
3.938	52.284
4.938	51.495
5.939	51.295
6.939	51.695
7.939	52.895
8.939	49.295
10.001	49.148
10.939	54.259
11.939	50.895
12.939	51.195
13.939	49.095
14.938	52.948
15.939	51.495
16.939	51.095
17.997	48.388
18.939	56.151
20.003	50.841
20.939	49.675
21.939	51.495
22.939	51.195
23.939	50.695
24.939	52.795
25.940	49.195
26.940	52.895
27.940	51.095
28.998	48.294
29.997	52.948
30.940	51.214
31.940	53.195
32.939	51.546
33.939	51.395
34.997	48.483
35.999	53.441
36.940	52.067
37.940	52.695
38.940	51.895
39.998	49.050
41.000	53.587
42.023	51.705
42.940	52.885
43.940	51.895
44.940	51.395
45.999	48.766
46.941	56.576
47.941	49.395
48.999	28.447
49.940	33.897
50.940	40.996
51.940	47.595
52.940	45.995
53.997	50.326
54.940	54.926
55.941	51.695
56.941	51.595
57.941	52.995
58.941	49.195
59.941	52.495
60.941	51.595
61.941	52.095
62.941	52.395
63.941	49.195
64.941	54.495
65.942	52.795
66.999	49.569
67.941	55.727
68.941	53.995
69.941	50.295
70.941	52.995
71.941	53.395
72.941	52.595
73.941	52.995
74.941	50.195
75.942	54.994
76.942	52.395
77.999	49.853
78.942	55.774
79.942	49.895
80.942	54.395
81.942	54.295
82.942	52.795
83.942	52.495
84.998	49.995
85.942	53.441
86.942	54.695
87.942	53.795
88.942	52.795
89.942	52.795
90.942	49.595
91.942	52.995
92.942	55.594
93.942	53.295
94.942	52.495
95.943	52.895
97.041	32.875
