Time [s]	Current [nA]
0.000	38.996
1.059	52.780
2.000	51.855
3.000	53.895
4.059	49.665
4.999	49.889
6.058	52.925
7.062	54.078
8.059	48.641
9.000	55.042
10.000	47.395
11.000	55.894
12.000	51.395
13.000	48.695
14.000	53.995
15.000	47.695
16.051	53.233
17.001	53.784
18.001	48.795
19.001	52.795
20.059	49.522
21.001	50.207
22.057	53.025
23.000	49.518
24.000	52.795
25.060	50.514
26.001	50.686
27.001	51.095
28.001	55.694
29.001	48.295
30.001	51.895
31.001	49.195
32.001	51.795
33.001	51.395
34.001	51.295
35.001	52.895
36.002	53.195
37.002	46.895
38.002	51.095
39.001	51.246
40.095	52.280
41.056	48.902
42.001	56.079
43.001	47.095
44.001	51.095
45.001	50.695
46.058	50.090
47.002	51.796
48.002	50.695
49.069	52.197
50.002	48.763
51.002	50.995
52.065	50.042
53.067	53.488
54.002	49.300
55.002	50.895
56.003	50.895
57.002	52.147
58.064	50.372
59.002	48.503
60.002	51.295
61.064	47.547
62.061	50.647
63.002	51.323
64.002	52.995
65.057	48.572
66.003	48.198
67.003	54.495
68.003	47.695
69.081	48.047
70.003	55.743
71.003	46.495
72.003	50.295
73.063	51.316
74.002	50.581
75.061	32.889
76.003	28.235
77.060	39.353
78.060	44.096
79.075	49.552
80.003	47.732
81.059	49.427
82.060	50.145
83.003	47.927
84.064	50.985
85.065	52.595
86.062	46.635
87.063	50.544
88.059	49.694
89.059	49.395
90.085	48.241
91.067	53.152
92.003	49.995
93.060	47.772
94.060	49.595
95.063	49.197
96.067	52.286
97.062	46.528
98.004	48.084
99.065	52.021
100.004	0.639
