Time [s]	Current [nA]
0.000	54.795
1.000	63.994
2.062	57.716
2.999	64.668
3.999	60.694
4.999	62.794
6.065	60.088
7.000	58.818
8.000	62.194
9.000	60.894
10.059	57.218
11.062	63.503
12.000	60.335
13.000	61.794
14.000	60.394
15.001	60.694
16.001	62.594
17.001	56.894
18.068	58.476
19.001	64.945
20.000	59.854
21.000	60.494
22.000	58.094
23.000	62.994
24.058	57.745
25.000	64.006
26.001	60.894
27.001	62.394
28.001	55.794
29.001	63.694
30.001	61.494
31.059	57.461
32.001	64.325
33.001	62.794
34.001	57.894
35.002	61.894
36.002	60.194
37.002	60.294
38.079	58.211
39.001	61.382
40.060	60.239
41.001	65.137
42.062	57.016
43.001	64.424
44.009	62.494
45.001	58.260
46.002	61.994
47.002	59.994
48.002	60.494
49.002	60.894
50.002	57.694
51.002	63.094
52.002	61.494
53.002	60.394
54.059	57.610
55.001	61.247
56.002	63.494
57.002	61.694
58.002	61.194
59.002	60.594
60.002	60.394
61.002	57.694
62.002	62.694
63.002	62.294
64.060	57.272
65.002	64.962
66.003	62.794
67.003	57.894
68.084	62.806
69.003	59.950
70.003	60.494
71.003	60.094
72.003	57.894
73.002	63.357
74.060	57.745
75.002	64.325
76.003	61.394
77.003	57.694
78.003	61.094
79.003	63.994
80.065	57.527
81.003	64.706
82.003	23.098
