Time [s]	Current [nA]
0.000	32.471
1.000	54.295
2.000	59.094
3.000	51.995
4.000	56.094
5.001	55.894
6.001	55.694
7.001	58.494
8.001	58.494
9.001	51.595
10.001	55.594
11.001	47.995
12.001	29.797
13.001	42.796
14.001	44.396
15.067	55.300
16.002	52.936
17.001	55.250
18.001	57.894
19.001	52.695
20.001	56.094
21.001	55.794
22.001	55.294
23.001	57.394
24.001	50.595
25.002	57.494
26.002	56.294
27.002	55.794
28.002	55.494
29.002	57.994
30.002	53.295
31.002	56.694
32.002	55.394
33.002	55.494
34.001	57.252
35.001	50.995
36.002	58.394
37.002	55.994
38.002	54.994
39.002	55.594
40.058	53.972
41.002	55.927
42.002	56.094
43.002	55.094
44.058	52.362
45.003	59.104
46.003	53.395
47.003	57.294
48.003	55.694
49.003	54.895
50.003	54.695
51.062	53.630
52.002	55.633
53.002	54.895
54.064	52.349
55.002	57.670
56.003	53.795
57.003	51.495
58.003	55.994
59.060	52.218
60.003	57.364
61.003	54.395
62.003	57.394
63.003	51.695
64.089	55.980
65.059	51.285
66.004	58.089
67.004	54.495
68.004	56.694
69.003	52.247
70.003	55.294
71.054	51.850
72.003	57.107
73.003	56.694
74.003	50.295
75.003	56.594
76.004	55.594
77.004	54.495
78.004	54.895
79.004	56.694
80.004	52.495
81.061	52.880
82.061	54.395
83.062	54.540
84.004	59.548
85.082	50.877
86.005	56.332
87.061	52.267
88.061	54.195
89.059	54.704
90.063	56.568
91.004	55.786
92.057	15.573
