Time [s]	Current [nA]
0.000	56.842
1.000	62.094
1.999	62.256
2.999	64.094
3.999	58.094
4.999	62.294
6.000	61.094
7.000	60.894
8.000	63.594
9.000	56.294
10.000	63.694
11.000	61.694
12.000	60.594
13.000	60.694
14.000	62.794
15.063	60.823
16.057	55.829
17.001	63.871
18.001	60.594
19.001	62.794
20.000	56.851
21.000	62.994
22.000	61.194
23.000	59.894
24.000	59.994
25.000	62.494
26.001	57.694
27.001	61.294
28.001	59.994
29.001	59.694
30.001	60.194
31.001	61.994
32.001	57.194
33.001	60.694
34.001	59.694
35.001	59.594
36.002	61.894
37.001	57.352
38.001	60.894
39.001	61.194
40.001	60.194
41.001	60.594
42.063	59.787
43.001	60.335
44.001	55.594
45.001	59.994
46.061	61.184
47.002	60.780
48.002	62.794
49.002	48.095
50.002	29.297
51.002	41.596
52.002	50.595
53.002	57.594
54.002	54.994
55.062	56.274
56.002	63.504
57.060	56.138
58.062	62.070
59.002	57.654
60.065	63.117
61.002	58.159
62.058	55.960
63.002	62.706
64.061	57.879
65.002	60.143
66.003	59.994
67.003	59.294
68.058	56.487
69.007	64.588
70.091	54.884
71.060	58.405
72.002	63.688
73.002	59.694
74.002	59.794
75.002	56.394
76.003	61.194
77.003	59.294
78.003	58.794
79.003	59.194
80.003	59.594
81.003	56.894
82.003	61.394
83.003	60.194
84.158	33.157
