Time [s]	Current [nA]
0.000	17.490
1.066	55.154
2.062	52.706
3.055	49.945
3.999	57.727
5.068	50.089
6.062	54.723
7.069	52.229
8.075	53.076
9.058	51.165
10.058	55.394
11.063	52.831
12.067	52.784
13.010	55.986
14.058	48.087
15.000	57.319
16.006	53.726
17.062	50.847
18.012	54.416
19.073	50.042
20.055	51.115
21.059	54.576
22.006	56.172
23.058	50.375
24.065	52.428
25.000	52.829
26.079	55.560
27.061	49.893
28.077	52.849
29.063	54.254
30.068	51.537
31.055	50.856
32.060	54.422
33.062	53.089
34.067	45.369
35.066	29.256
36.085	37.778
37.059	43.733
38.059	51.295
39.001	51.163
40.007	56.456
41.065	49.901
42.001	52.879
43.060	51.081
44.092	51.351
45.010	57.246
46.073	49.384
47.074	52.542
48.002	54.305
49.061	51.553
50.013	56.297
51.067	49.995
52.072	52.134
53.057	50.756
54.061	54.775
55.010	56.113
56.068	51.318
57.064	53.709
58.002	50.741
59.002	54.994
60.002	50.595
61.059	51.083
62.002	55.774
63.055	50.137
64.002	57.650
65.002	48.795
66.065	56.586
67.003	50.954
68.059	49.427
69.065	57.549
70.063	49.694
71.065	55.583
72.061	48.389
73.002	56.105
74.058	49.616
75.002	58.151
76.014	53.012
77.066	52.751
78.059	48.434
79.058	52.447
80.059	52.143
81.062	54.531
82.066	55.971
83.059	48.535
84.059	52.895
85.066	57.648
86.004	51.701
87.067	51.923
88.067	56.194
89.061	48.385
90.003	55.727
91.003	52.595
92.062	51.742
93.065	55.827
94.059	48.084
95.071	57.363
96.107	18.917
