Time [s]	Current [nA]
0.000	20.353
1.060	57.541
1.999	61.655
2.999	63.194
3.999	55.894
4.999	61.894
6.000	60.894
7.000	60.594
8.000	62.894
9.000	46.395
10.000	31.497
11.000	41.596
12.000	50.495
13.000	57.394
14.000	60.894
15.000	53.695
16.001	61.594
17.001	60.194
18.065	62.400
19.000	61.063
20.000	57.394
21.000	60.994
22.000	60.694
23.000	61.294
24.000	62.894
25.000	55.594
26.001	61.794
27.001	60.994
28.001	60.194
29.001	60.094
30.001	62.694
31.063	60.163
32.001	58.097
33.059	57.556
34.063	60.452
35.000	60.933
36.001	61.194
37.001	62.994
38.001	61.094
39.001	61.494
40.001	60.794
41.063	60.258
42.059	56.822
43.061	61.471
44.059	61.216
45.063	60.612
46.087	60.443
47.063	58.396
48.060	62.983
49.062	60.872
50.067	61.586
51.002	58.711
52.059	59.502
53.061	62.868
54.001	59.462
55.068	63.033
56.072	60.950
57.072	60.794
58.002	62.037
59.068	59.750
60.068	61.794
61.002	58.881
62.002	61.094
63.002	63.794
64.002	58.994
65.089	63.161
66.065	56.757
67.003	65.132
68.004	61.432
69.003	57.752
70.061	60.485
71.002	59.824
72.002	60.794
73.002	60.894
74.064	65.154
75.002	59.589
76.003	62.694
77.003	56.694
78.003	60.594
79.003	60.794
80.003	62.994
81.003	63.094
82.003	56.294
83.003	60.794
84.107	30.975
