Time [s]	Current [nA]
0.000	13.630
1.059	57.029
1.999	59.143
2.999	59.894
3.999	62.094
5.077	56.447
6.000	30.658
7.000	33.797
8.000	45.395
9.000	52.295
10.000	58.694
11.062	57.339
12.000	57.031
13.000	59.594
14.057	56.475
15.080	60.268
16.001	60.472
17.001	62.094
18.001	60.194
19.000	59.954
20.009	59.855
21.000	57.007
22.000	61.594
23.000	54.695
24.000	59.394
25.001	59.294
26.094	59.463
27.001	62.177
28.001	60.994
29.001	55.194
30.061	61.126
31.001	57.335
32.001	61.394
33.001	61.194
34.001	53.895
35.002	60.394
36.002	59.194
37.001	59.353
38.001	61.994
39.001	56.194
40.001	60.194
41.001	59.794
42.001	59.594
43.001	56.294
44.001	59.994
45.001	60.994
46.002	59.694
47.064	56.303
48.002	63.000
49.067	58.492
50.002	59.887
51.002	54.795
52.002	59.394
53.002	59.194
54.001	61.155
55.087	55.847
56.002	61.087
57.002	60.494
58.002	58.794
59.002	58.994
60.002	55.894
61.002	60.694
62.002	59.894
63.002	58.994
64.002	59.194
65.002	54.295
66.065	63.176
67.003	58.523
68.003	54.195
69.003	57.994
70.003	58.094
71.003	60.294
72.061	56.989
73.002	57.061
74.002	58.694
75.068	60.182
76.003	55.823
77.003	60.694
78.003	54.495
79.003	58.194
80.003	57.594
81.003	57.294
82.003	59.794
83.003	54.195
84.003	57.294
85.003	57.494
86.068	58.735
87.004	6.516
