Time [s]	Current [nA]
0.000	7.554
0.995	56.979
2.003	57.137
3.008	57.109
4.003	51.955
4.995	56.748
6.001	55.318
7.005	55.572
8.002	58.269
9.003	58.436
10.001	52.199
11.001	55.794
12.003	55.284
13.004	58.136
13.995	57.310
15.000	52.731
16.001	55.994
17.001	55.594
17.996	56.175
19.004	57.435
19.996	53.724
21.001	56.412
22.001	55.694
23.001	56.094
24.005	55.971
24.996	58.622
26.010	57.546
27.002	52.011
28.002	55.394
29.006	55.672
30.004	58.211
31.006	58.078
31.996	52.015
33.001	55.318
34.001	57.294
34.996	57.080
36.002	59.497
36.997	53.763
38.002	57.308
39.002	56.794
39.997	57.482
41.005	58.526
42.005	59.094
43.006	52.442
44.002	58.729
44.997	57.884
46.004	57.251
47.006	59.475
47.997	55.191
49.002	57.805
49.997	57.582
51.002	56.412
51.997	54.065
53.002	57.905
53.997	59.190
55.002	57.507
56.003	56.794
57.003	57.194
58.071	55.425
58.998	58.678
60.003	57.805
61.003	56.794
62.003	56.994
63.009	59.040
64.005	52.505
64.997	60.276
66.003	57.308
67.003	56.594
67.998	57.180
69.004	53.971
70.003	58.953
71.003	58.294
72.007	56.369
73.005	57.008
74.007	58.178
75.011	57.920
75.999	54.954
77.004	57.308
78.004	56.694
79.007	56.525
80.005	59.012
81.004	54.249
81.999	57.984
82.998	56.751
83.998	56.894
84.998	56.894
85.999	54.795
87.008	57.873
87.999	58.319
89.004	11.044
