Time [s]	Current [nA]
0.000	12.964
1.088	59.645
2.000	58.437
3.000	58.894
4.000	53.295
4.999	56.351
6.000	56.194
7.000	58.794
8.058	55.949
9.000	55.727
10.000	56.594
11.000	61.294
12.065	53.422
13.000	58.390
14.058	56.422
15.000	56.788
16.001	56.994
17.059	58.595
18.001	56.788
19.059	55.666
20.069	56.925
21.001	56.861
22.059	58.028
23.054	56.778
24.000	56.865
25.000	59.694
26.061	55.466
27.001	54.569
28.001	56.794
29.001	58.394
30.001	59.494
31.001	52.595
32.001	57.294
33.001	55.794
34.001	61.094
35.001	53.995
36.063	55.602
37.061	57.109
38.058	57.467
39.054	56.922
40.001	56.805
41.001	57.894
42.001	58.894
43.001	52.395
44.001	61.394
45.001	41.796
46.002	31.797
47.062	43.203
48.002	50.314
49.002	53.795
50.002	60.494
51.002	52.395
52.068	55.060
53.002	57.917
54.002	56.494
55.002	56.794
56.059	54.351
57.002	62.348
58.002	54.295
59.064	59.222
60.002	54.579
61.057	53.739
62.002	59.888
63.002	59.794
64.002	54.495
65.002	57.694
66.003	56.794
67.059	54.067
68.061	59.176
69.003	57.850
70.003	57.894
71.064	54.754
72.062	58.110
73.005	61.500
74.002	54.759
75.061	56.422
76.003	55.939
77.058	58.572
78.003	54.704
79.003	58.994
80.003	59.394
81.003	57.294
82.003	52.495
83.064	58.147
84.064	56.394
85.062	53.555
86.004	63.051
87.004	52.795
88.004	56.594
89.137	41.037
