Time [s]	Current [nA]
0.000	1.146
1.061	59.378
2.000	66.667
2.999	62.262
3.999	58.900
4.999	65.100
5.999	62.700
6.999	62.200
7.999	62.500
8.999	56.400
9.999	65.400
10.999	63.800
11.999	57.600
12.999	61.600
13.999	67.100
14.999	59.200
15.999	64.200
16.999	57.000
17.999	63.200
18.999	62.200
19.999	62.300
20.998	59.560
21.998	63.900
22.998	62.800
23.998	61.700
24.998	61.200
25.998	63.700
26.998	57.600
27.998	63.200
29.059	59.472
29.998	65.815
30.998	61.900
31.998	59.000
32.998	64.400
33.998	62.600
34.998	62.100
36.054	58.523
36.998	61.017
38.074	57.714
38.997	68.689
39.997	62.000
41.056	58.074
41.997	65.462
42.997	58.300
43.997	64.700
44.997	56.800
45.997	61.400
47.058	63.242
47.997	61.129
48.997	62.700
49.997	58.600
50.997	61.900
51.997	61.500
52.997	61.400
54.055	60.302
54.997	66.773
56.057	58.962
56.996	58.999
57.996	61.500
58.996	61.600
59.996	64.200
61.002	63.419
61.996	57.243
62.996	61.100
63.996	61.300
64.996	63.800
65.996	58.500
66.996	61.700
67.996	61.200
68.996	61.500
69.996	61.500
70.996	63.600
71.996	58.400
72.995	62.262
74.053	57.467
74.995	64.968
75.995	62.900
76.995	57.500
78.063	65.075
78.995	60.300
80.057	58.004
80.995	65.565
82.048	12.251
