Time [s]	Current [nA]
0.000	25.720
1.000	61.800
2.000	62.000
3.058	58.600
4.061	64.799
4.999	61.827
5.999	57.094
7.060	63.424
8.000	59.951
9.000	64.394
10.000	63.894
11.000	56.194
12.000	63.394
13.000	61.694
14.000	61.594
15.000	64.394
16.000	58.694
17.062	64.777
18.001	59.056
19.001	61.594
20.000	59.053
21.000	61.494
22.000	63.594
23.000	62.194
24.000	61.494
25.000	61.994
26.060	60.466
27.060	58.194
28.001	66.164
29.001	61.494
30.001	61.794
31.001	58.394
32.097	62.129
33.057	61.140
34.001	59.316
35.001	61.094
36.001	61.194
37.001	63.594
38.060	60.107
39.001	59.293
40.001	60.994
41.001	60.894
42.001	61.394
43.001	63.594
44.001	63.894
45.060	58.729
46.001	64.393
47.060	57.785
48.002	61.630
49.002	64.194
50.061	58.446
51.064	60.612
52.002	59.696
53.002	61.394
54.002	63.494
55.001	64.258
56.001	57.194
57.001	61.494
58.002	61.394
59.060	59.729
60.002	61.459
61.002	61.494
62.067	64.407
63.002	36.360
64.002	36.396
65.002	49.395
66.002	51.795
67.059	56.664
68.003	63.726
69.066	57.661
70.003	62.320
71.003	61.494
72.003	63.594
73.002	61.856
74.002	55.694
75.002	60.794
76.064	65.718
77.002	61.401
78.003	56.594
79.003	61.194
80.065	63.365
81.003	60.122
82.003	62.594
83.003	20.798
