Time [s]	Current [nA]
0.000	51.895
1.000	61.294
2.059	56.085
3.000	62.162
3.999	58.753
4.999	55.594
6.057	57.799
7.000	56.834
8.000	59.394
9.000	58.294
10.000	58.394
11.058	57.367
12.000	63.900
13.000	54.195
14.000	57.994
15.000	57.994
16.001	60.094
17.001	54.595
18.001	60.494
19.001	58.594
20.001	58.394
21.001	58.494
22.000	61.055
23.000	55.494
24.000	58.694
25.000	58.194
26.001	58.094
27.001	60.394
28.001	58.994
29.001	55.694
30.001	58.294
31.001	58.194
32.001	58.294
33.001	60.394
34.001	60.394
35.001	53.895
36.002	58.094
37.002	58.394
38.002	58.894
39.001	60.554
40.001	55.095
41.001	58.294
42.063	59.881
43.001	56.178
44.001	60.794
45.001	54.395
46.002	58.094
47.067	60.276
48.002	55.930
49.002	57.894
50.002	61.094
51.002	55.194
52.002	58.494
53.002	57.594
54.064	59.881
55.002	57.670
56.003	55.094
57.002	58.052
58.002	58.994
59.002	57.694
60.002	57.794
61.002	60.394
62.002	58.794
63.002	51.695
64.002	54.895
65.002	55.394
66.003	56.794
67.003	57.794
68.003	52.195
69.003	55.494
70.003	54.695
71.003	55.894
72.061	54.720
73.003	57.638
74.002	57.452
75.002	55.694
76.003	55.494
77.003	50.595
78.003	55.994
79.003	58.294
80.003	56.194
81.003	54.994
82.003	56.194
83.003	53.295
84.003	58.294
85.003	57.594
86.004	56.594
87.056	5.893
