Time [s]	Current [nA]
0.000	55.600
0.999	63.363
1.999	69.200
2.999	67.300
3.999	66.100
5.057	62.571
6.056	68.368
6.999	65.960
7.999	68.600
8.999	66.400
9.999	66.600
11.059	63.585
12.061	68.263
13.058	62.187
14.059	67.732
15.061	67.764
16.054	66.868
17.062	61.508
18.099	64.224
19.060	65.661
20.057	66.700
21.060	67.597
21.998	63.859
23.052	64.801
24.055	68.395
25.063	67.063
26.056	68.681
27.057	65.534
28.086	59.378
29.060	71.253
30.056	62.651
30.998	64.437
32.058	67.642
32.998	63.298
33.998	67.900
34.998	68.600
36.063	63.380
36.997	63.704
38.057	67.736
38.997	62.872
39.997	68.000
40.997	68.500
42.061	63.534
42.997	47.009
43.997	35.400
44.997	49.400
45.997	53.300
46.997	63.200
48.062	67.793
48.997	62.995
49.997	66.600
50.997	67.400
51.997	61.900
52.997	67.000
53.996	65.165
55.054	61.626
55.996	66.242
56.996	66.000
58.053	64.238
58.996	69.989
59.996	65.500
61.053	61.968
62.054	66.933
63.056	69.361
63.996	64.362
64.996	65.200
65.996	65.600
66.996	60.400
67.996	67.900
69.057	65.221
69.996	70.075
70.995	65.766
72.054	63.645
72.995	65.356
73.995	63.700
74.995	66.500
75.995	65.500
76.995	30.700
