Time [s]	Current [nA]
0.000	9.292
1.000	62.894
2.000	51.595
3.000	30.697
4.000	37.196
5.000	48.095
6.001	54.595
7.001	54.295
8.001	59.094
9.001	59.594
10.001	59.394
11.001	59.594
12.001	62.294
13.000	57.051
14.000	60.694
15.000	59.494
16.001	59.394
17.001	61.994
18.001	56.794
19.001	60.594
20.001	59.694
21.001	59.994
22.056	56.582
23.001	65.602
24.063	59.504
25.001	57.883
26.002	59.494
27.002	59.194
28.002	61.794
29.002	54.994
30.002	62.194
31.001	60.454
32.001	59.594
33.001	59.994
34.001	61.694
35.001	56.694
36.002	60.594
37.002	59.494
38.002	59.394
39.005	61.908
40.002	55.060
41.002	62.594
42.002	60.494
43.002	59.894
44.064	56.397
45.002	60.868
46.003	62.294
47.003	55.394
48.002	59.854
49.002	58.994
50.002	59.194
51.002	62.394
52.060	58.217
53.002	58.593
54.056	61.284
55.059	58.976
56.003	60.163
57.003	62.294
58.083	55.365
59.003	59.342
60.003	58.594
61.003	58.894
62.003	61.594
63.058	58.572
64.003	57.666
65.003	59.094
66.066	60.634
67.003	60.186
68.003	61.494
69.006	59.615
70.003	54.458
71.003	64.294
72.066	55.874
73.003	60.400
74.003	61.894
75.003	54.795
76.004	59.294
77.004	59.094
78.004	61.194
79.084	56.476
80.004	60.103
81.004	59.494
82.004	58.594
83.003	63.657
84.003	55.694
85.003	61.494
86.004	12.399
