Time [s]	Current [nA]
0.000	22.373
1.000	58.594
2.000	59.294
3.000	60.194
4.000	56.794
5.000	62.694
6.001	61.194
7.000	60.655
8.000	59.994
9.000	60.094
10.000	57.294
11.000	62.794
12.000	60.694
13.000	60.094
14.000	59.994
15.000	62.094
16.059	54.626
17.001	64.856
18.001	60.794
19.001	59.694
20.001	60.194
21.061	59.145
22.001	59.249
23.001	61.394
24.000	59.954
25.000	60.594
26.001	56.694
27.001	60.894
28.059	58.973
29.063	60.452
30.001	63.853
31.001	59.794
32.001	56.994
33.058	58.651
34.001	64.151
35.001	59.394
36.002	59.994
37.002	61.494
38.002	55.494
39.002	62.494
40.002	59.994
41.002	59.494
42.001	59.654
43.001	61.794
44.001	56.994
45.001	61.094
46.002	59.894
47.002	59.994
48.002	59.994
49.002	56.494
50.060	59.162
51.002	63.688
52.002	59.794
53.002	59.794
54.002	61.694
55.002	57.194
56.003	60.794
57.060	56.570
58.003	62.772
59.060	57.137
60.002	60.503
61.002	62.694
62.002	60.294
63.002	59.794
64.059	56.380
65.002	65.211
66.003	56.594
67.003	61.294
68.064	57.487
69.003	63.998
70.003	60.094
71.003	57.494
72.003	62.894
73.064	57.770
74.003	57.502
75.003	59.894
76.004	61.494
77.003	61.255
78.004	61.033
79.003	55.350
80.003	59.694
81.003	59.694
82.059	59.180
83.064	61.884
84.003	12.778
