Time [s]	Current [nA]
0.000	56.550
1.055	64.265
2.000	61.164
3.000	63.700
4.057	61.400
5.060	62.712
6.000	59.681
7.000	62.100
8.050	61.524
9.000	67.895
10.058	59.452
11.000	59.342
12.000	61.700
13.087	63.017
14.057	60.309
14.999	62.102
15.999	62.200
16.999	61.500
17.999	61.700
18.999	64.000
19.999	64.100
20.999	56.700
21.999	45.700
23.059	36.321
23.999	44.574
24.999	55.900
25.999	61.000
26.999	56.000
27.999	60.800
28.999	66.500
29.999	58.500
30.998	63.864
31.998	55.900
32.998	61.700
33.998	61.000
34.998	61.400
35.998	63.900
37.056	60.586
37.998	60.297
38.998	61.200
39.998	61.300
41.059	65.881
41.998	60.703
43.054	59.375
43.998	59.746
44.998	61.200
46.059	62.677
46.998	61.661
47.997	63.664
48.997	56.500
49.997	61.400
50.997	61.200
51.997	62.700
52.997	61.900
53.997	58.300
54.997	61.500
55.997	60.300
56.997	60.800
57.997	63.200
58.997	64.000
59.997	56.500
60.997	61.100
61.997	61.400
62.997	61.500
63.997	64.200
64.997	63.900
65.996	56.657
66.996	61.100
67.996	61.300
68.996	63.800
69.996	63.700
70.996	56.600
71.996	62.200
73.055	62.512
73.996	59.299
74.996	63.600
75.996	63.900
77.057	59.001
77.996	58.999
79.056	63.208
79.996	62.021
80.996	63.300
82.146	30.000
