Time [s]	Current [nA]
0.000	8.390
1.062	54.514
2.000	55.751
3.000	55.994
4.064	57.983
5.001	53.413
6.001	55.794
7.060	54.480
8.063	58.319
9.058	50.648
10.001	58.955
11.057	52.267
12.009	60.393
13.000	51.458
14.000	57.494
15.063	52.820
16.001	59.163
17.001	55.394
18.066	54.736
19.001	55.609
20.058	53.164
21.001	58.319
22.060	52.214
23.072	57.307
24.001	53.385
25.002	57.694
26.013	55.187
27.068	53.265
28.002	53.207
29.058	53.688
30.006	60.437
31.066	53.863
32.064	55.806
33.063	54.949
34.001	53.086
35.068	54.028
36.059	52.972
37.064	55.517
38.002	58.843
39.003	55.439
40.002	52.747
41.002	56.894
42.018	54.916
43.067	52.998
44.002	53.043
45.003	54.895
46.002	57.252
47.002	52.395
48.068	57.218
49.063	55.572
50.002	52.604
51.002	56.894
52.002	52.895
53.002	54.695
54.064	52.820
55.003	58.523
56.003	54.995
57.003	52.395
58.065	53.761
59.003	59.056
60.062	51.836
61.057	55.170
62.003	55.491
63.003	55.494
64.004	56.638
65.069	53.002
66.068	54.849
67.069	54.840
68.003	55.134
69.008	56.611
70.064	52.836
71.069	54.721
72.003	53.207
73.003	55.794
74.003	56.594
75.003	52.495
76.004	55.894
77.004	54.895
78.004	55.194
79.011	56.499
80.067	54.540
81.003	53.841
82.003	54.795
83.003	54.994
84.078	51.530
85.003	56.751
86.004	57.194
87.013	55.099
88.004	50.550
89.004	55.094
90.059	53.454
91.004	49.201
