Time [s]	Current [nA]
0.000	2.006
1.061	56.451
2.103	52.874
3.000	59.414
4.000	52.895
4.999	56.351
6.000	54.895
7.000	55.594
8.000	52.795
9.000	57.694
10.000	56.194
11.000	56.094
12.000	55.994
13.000	55.994
14.000	52.795
15.001	57.694
16.001	56.594
17.001	56.094
18.001	55.994
19.001	53.295
20.001	58.094
21.001	51.095
22.061	58.202
23.000	53.669
24.060	57.636
25.000	55.845
26.001	52.795
27.067	58.531
28.001	53.635
29.001	55.894
30.001	58.094
31.001	57.294
32.001	52.595
33.067	58.249
34.001	54.063
35.002	56.494
36.002	58.094
37.002	53.495
38.002	56.994
39.002	56.194
40.059	53.069
41.001	61.247
42.001	52.295
43.059	55.004
44.001	60.291
45.001	55.794
46.002	55.994
47.061	54.480
48.056	53.361
49.002	60.142
50.002	55.694
51.064	52.537
52.002	59.376
53.002	53.795
54.002	57.894
55.002	56.394
56.003	55.694
57.003	56.094
58.064	55.885
59.002	55.858
60.002	51.195
61.062	58.862
62.064	55.883
63.002	54.152
64.002	57.894
65.002	52.895
66.003	56.894
67.003	56.094
68.003	55.894
69.066	54.463
70.003	54.957
71.003	58.294
72.003	56.494
73.003	56.694
74.003	56.394
75.002	57.952
76.003	53.195
77.003	56.794
78.003	56.294
79.003	55.994
80.003	53.095
81.084	57.904
82.066	53.457
83.003	60.506
84.003	56.294
85.003	56.094
86.004	52.995
87.004	58.394
88.004	56.694
89.066	52.631
90.085	30.811
