Time [s]	Current [nA]
0.000	14.879
1.000	56.094
2.000	56.894
3.000	53.095
4.000	58.894
5.000	56.794
6.001	56.194
7.001	55.894
8.001	52.895
9.001	57.994
10.001	56.794
11.001	57.294
12.000	56.251
13.062	52.914
14.000	56.924
15.058	54.678
16.001	60.333
17.001	55.694
18.001	55.994
19.001	52.995
20.001	56.994
21.001	58.194
22.059	53.114
23.001	59.230
24.001	56.194
25.001	52.995
26.002	58.194
27.002	56.994
28.002	56.094
29.002	55.894
30.001	57.352
31.001	51.895
32.001	58.594
33.001	56.394
34.001	55.694
35.001	55.994
36.002	52.795
37.063	60.032
38.002	54.627
39.002	55.794
40.002	55.694
41.002	56.394
42.002	52.795
43.002	57.894
44.002	56.594
45.061	52.547
46.003	59.017
47.002	52.747
48.064	59.975
49.002	54.579
50.059	52.596
51.002	58.743
52.002	55.494
53.002	53.295
54.002	58.094
55.002	56.594
56.003	55.694
57.003	55.494
58.003	57.194
59.003	52.795
60.003	55.994
61.003	56.494
62.003	55.194
63.003	55.494
64.003	52.495
65.002	57.652
66.003	56.494
67.061	52.358
68.003	59.017
69.003	57.194
70.003	51.195
71.003	57.794
72.003	56.094
73.003	55.394
74.003	55.594
75.064	54.806
76.004	55.207
77.004	56.594
78.004	55.594
79.004	55.694
80.004	56.894
81.004	51.395
82.003	58.553
83.003	56.094
84.003	55.394
85.003	55.294
86.004	46.695
87.004	26.297
88.004	37.596
89.004	45.095
90.004	49.295
91.354	28.886
