Time [s]	Current [nA]
0.000	41.986
0.944	58.257
1.944	50.395
2.944	53.495
3.944	52.795
5.003	49.995
5.945	58.062
6.945	50.195
7.945	53.395
9.007	50.560
9.945	55.858
10.945	52.395
12.001	52.267
13.006	55.218
13.945	51.007
14.945	52.595
15.946	52.995
16.946	54.295
17.945	48.844
18.945	54.595
19.945	53.295
20.945	52.395
21.945	52.695
22.945	54.495
24.008	52.394
24.945	51.222
26.001	49.758
26.946	55.550
27.946	54.495
28.946	48.095
30.004	51.980
30.946	56.470
31.946	52.195
32.946	52.295
33.946	54.695
34.945	50.045
35.946	53.495
36.946	51.995
37.946	52.195
39.026	49.532
39.946	53.473
40.946	53.895
41.946	53.295
42.946	52.295
44.001	49.758
45.004	54.431
45.947	52.755
46.947	53.195
48.003	49.332
48.947	55.079
49.947	52.095
50.998	52.040
52.002	49.497
52.946	55.715
53.946	51.995
54.946	52.195
55.947	49.895
56.947	54.095
57.947	52.695
58.947	53.095
59.947	51.795
60.947	51.795
61.947	53.995
62.947	49.695
63.947	52.595
64.947	51.895
65.948	52.095
66.948	53.995
67.948	47.995
68.948	53.795
70.003	49.474
71.001	51.698
71.947	54.963
72.947	54.095
73.947	49.295
74.947	52.795
75.948	50.795
76.948	48.895
77.950	50.294
78.948	44.985
79.948	51.995
80.948	49.595
81.948	47.895
82.948	48.095
83.948	50.795
84.948	46.795
85.949	50.895
86.949	48.995
88.003	46.675
88.948	52.587
89.948	46.195
90.948	51.495
91.948	50.395
92.948	49.395
93.948	50.295
94.948	51.595
96.056	34.504
