Time [s]	Current [nA]
0.000	15.930
1.000	63.494
2.000	68.693
3.000	71.893
4.000	71.193
5.000	63.594
6.001	68.393
7.001	67.993
8.001	68.993
9.001	70.593
10.001	64.594
11.001	68.793
12.001	67.693
13.001	67.893
14.001	70.393
15.002	70.693
16.061	65.905
17.060	67.361
18.001	65.137
19.001	67.793
20.001	71.893
21.001	63.994
22.001	68.293
23.060	69.587
24.001	65.456
25.001	69.993
26.002	70.593
27.002	62.294
28.002	68.293
29.007	67.157
30.002	68.536
31.002	70.493
32.002	64.194
33.063	70.869
34.001	64.599
35.001	67.493
36.002	69.993
37.002	63.894
38.002	68.893
39.002	68.993
40.002	67.693
41.002	67.893
42.002	70.593
43.002	64.494
44.066	69.542
45.002	64.630
46.003	67.793
47.003	70.293
48.003	68.993
49.003	63.294
50.003	68.093
51.002	67.461
52.002	67.093
53.002	70.893
54.002	70.293
55.002	62.094
56.003	67.093
57.003	67.993
58.003	68.793
59.003	68.993
60.003	64.394
61.003	67.893
62.003	66.993
63.003	67.093
64.003	70.093
65.063	66.377
66.004	66.731
67.004	67.193
68.004	67.293
69.003	67.461
70.003	71.293
71.003	63.294
72.003	67.993
73.003	66.893
74.063	41.128
