Time [s]	Current [nA]
0.000	20.083
1.057	49.191
1.999	49.252
2.999	54.895
3.999	45.995
4.999	49.595
6.000	53.995
7.000	47.195
8.000	51.895
9.000	45.995
10.000	54.095
11.000	45.695
12.000	51.595
13.000	50.195
14.000	51.395
15.001	45.795
16.058	50.988
17.001	52.699
18.001	47.095
19.001	51.995
20.066	48.634
21.000	48.496
22.000	49.895
23.066	48.869
24.000	49.246
25.000	51.595
26.001	50.895
27.001	49.895
28.001	49.395
29.001	47.095
30.001	51.495
31.001	50.595
32.001	49.795
33.001	49.495
34.001	50.395
35.067	49.103
36.002	50.476
37.001	50.045
38.001	50.095
39.001	50.095
40.001	47.195
41.001	51.995
42.001	45.495
43.001	50.695
44.001	49.595
45.001	47.895
46.059	46.637
47.002	51.957
48.002	43.496
49.002	46.995
50.002	47.295
51.002	48.995
52.002	48.795
53.002	42.796
54.002	48.295
55.001	46.842
56.002	47.195
57.002	48.095
58.002	44.796
59.002	48.095
60.002	47.295
61.002	47.095
62.002	48.395
63.084	44.728
64.002	52.500
65.002	44.396
66.003	47.595
67.003	48.195
68.003	50.095
69.068	47.883
70.003	46.733
71.003	48.395
72.059	46.302
73.002	47.291
74.002	49.295
75.002	50.495
76.003	48.595
77.003	48.495
78.003	48.395
79.003	46.195
80.003	50.495
81.062	46.360
82.003	51.323
83.003	44.196
84.003	48.295
85.003	51.195
86.004	50.095
87.004	44.896
88.004	48.395
89.004	52.795
90.003	46.142
91.003	51.195
92.003	45.195
93.069	50.652
94.003	46.997
95.003	49.195
96.004	51.195
97.069	48.634
98.004	47.803
99.004	49.695
100.004	49.095
101.004	46.495
102.062	48.105
103.004	6.369
