Time [s]	Current [nA]
0.000	0.158
0.942	61.671
1.942	55.294
2.942	58.794
3.942	59.294
4.942	58.494
5.943	55.094
6.943	59.994
7.943	58.594
9.001	54.720
9.943	61.777
10.943	59.294
12.007	56.103
12.943	58.327
13.943	58.294
14.942	57.952
16.006	54.369
16.943	58.799
18.005	56.680
19.002	58.470
19.943	56.530
20.943	57.794
21.943	58.194
22.943	60.694
23.943	59.294
24.943	53.795
25.944	57.294
26.944	57.494
27.944	60.394
28.944	54.295
29.944	58.194
30.944	58.294
31.944	57.594
32.943	57.452
33.943	59.994
34.943	54.595
35.944	57.894
36.944	54.095
37.944	53.995
38.944	55.294
39.951	54.314
40.944	50.146
41.944	52.795
42.944	52.795
43.944	53.895
44.944	56.194
45.945	56.194
47.007	52.255
48.005	54.003
48.945	51.165
49.944	55.250
51.039	50.041
51.944	56.237
52.944	54.295
53.944	54.095
54.944	55.094
55.945	40.596
56.945	22.798
58.002	31.690
58.945	43.580
59.945	45.995
61.020	47.902
61.945	53.400
62.945	56.894
64.007	52.914
65.004	56.063
65.946	58.655
66.946	51.895
67.945	53.348
68.945	56.194
69.945	55.694
71.012	56.883
71.945	53.800
72.945	58.594
73.945	53.195
74.945	56.094
75.946	55.994
76.946	55.194
78.003	54.583
78.946	55.986
79.946	56.594
81.012	58.812
81.946	54.063
82.946	57.594
83.946	53.595
84.945	58.453
85.946	57.294
86.946	56.494
87.946	55.994
88.946	53.195
89.946	57.194
90.946	58.994
91.999	0.380
