Time [s]	Current [nA]
0.000	8.196
1.000	55.694
2.058	54.626
3.000	61.459
4.000	51.295
5.001	56.494
6.001	55.294
7.001	55.894
8.001	57.894
9.001	57.994
10.068	53.603
11.001	54.764
12.054	57.639
13.001	55.855
14.001	58.494
15.002	51.795
16.002	57.394
17.001	55.950
18.001	56.194
19.001	58.594
20.001	58.194
21.001	52.495
22.001	56.594
23.001	56.394
24.001	58.594
25.002	58.194
26.002	32.097
27.068	31.704
28.002	38.968
29.002	47.895
30.002	53.895
31.002	56.694
32.002	50.895
33.060	58.784
34.002	54.984
35.072	61.079
36.002	55.478
37.002	55.094
38.063	59.466
39.002	54.840
40.054	59.310
41.002	57.484
42.002	59.794
43.002	53.695
44.002	57.194
45.003	57.494
46.003	57.594
47.003	60.594
48.003	59.794
49.003	53.495
50.003	57.594
51.003	57.994
52.002	60.254
53.002	59.594
54.002	53.295
55.003	58.194
56.003	57.494
57.062	59.390
58.003	58.549
59.003	55.294
60.003	58.194
61.060	59.597
62.003	56.092
63.003	60.194
64.003	60.494
65.078	54.371
66.004	58.202
67.004	57.694
68.004	57.894
69.004	60.194
70.003	60.254
71.003	54.295
72.003	57.894
73.003	58.094
74.065	62.423
75.003	57.564
76.004	54.595
77.004	58.394
78.004	58.094
79.004	58.094
80.004	60.294
81.004	61.094
82.004	54.295
83.004	58.094
84.004	58.194
85.004	59.294
86.005	59.794
87.004	56.351
88.004	58.794
89.064	30.374
