Time [s]	Current [nA]
0.000	14.284
1.000	51.995
2.000	58.794
3.000	58.894
4.063	53.240
5.001	59.973
6.001	56.194
7.056	54.971
8.000	56.774
9.000	57.794
10.058	53.019
11.057	56.151
12.000	60.439
13.000	53.295
14.000	58.394
15.000	56.694
16.001	55.994
17.001	56.294
18.001	57.694
19.001	53.295
20.001	57.294
21.001	56.994
22.001	56.194
23.001	56.194
24.000	53.048
25.000	58.394
26.063	53.196
27.059	56.621
28.001	55.515
29.001	58.494
30.003	57.978
31.001	51.698
32.001	56.694
33.001	55.594
34.001	55.894
35.001	58.394
36.002	53.295
37.002	56.594
38.002	55.894
39.002	56.494
40.002	57.894
41.002	57.194
42.062	54.712
43.001	54.201
44.062	57.676
45.001	53.988
46.002	57.794
47.061	54.952
48.002	55.361
49.002	55.994
50.002	56.094
51.002	57.094
52.002	57.594
53.002	53.395
54.002	56.294
55.002	55.894
56.003	55.894
57.003	57.694
58.003	38.496
59.002	29.527
60.002	38.396
61.002	46.395
62.094	51.826
63.002	55.501
64.002	51.895
65.002	55.794
66.003	55.894
67.003	55.694
68.059	54.635
69.003	61.435
70.003	51.195
71.003	56.894
72.003	55.694
73.068	57.553
74.003	56.251
75.003	57.394
76.004	51.995
77.064	57.447
78.064	55.794
79.003	55.905
80.003	58.094
81.080	52.362
82.069	57.426
83.068	55.950
84.003	53.898
85.003	58.394
86.065	55.320
87.004	54.095
88.065	57.487
89.065	55.894
90.004	55.905
91.004	26.397
