Time [s]	Current [nA]
0.000	51.995
1.000	56.594
2.000	58.694
3.000	53.595
3.999	57.452
4.999	56.394
6.058	53.397
7.060	58.976
8.000	54.569
9.000	58.994
10.000	56.594
11.000	56.394
12.000	56.594
13.000	53.995
14.000	58.494
15.000	52.195
16.062	57.487
17.001	54.840
18.001	56.494
19.001	59.294
20.051	55.137
21.010	58.910
22.000	52.217
23.000	56.494
24.000	57.994
25.060	55.330
26.087	55.399
27.001	56.340
28.001	56.294
29.067	57.874
30.001	57.061
31.001	53.295
32.066	58.586
33.001	54.540
34.001	56.494
35.001	58.594
36.002	52.095
37.002	57.294
38.002	57.394
39.059	53.069
40.001	59.654
41.001	52.995
42.001	57.994
43.058	53.921
44.063	55.915
45.001	59.909
46.002	52.895
47.002	56.494
48.064	55.268
49.064	56.494
50.002	59.696
51.002	56.094
52.002	53.395
53.002	58.394
54.002	56.694
55.002	56.794
56.003	51.395
57.002	56.651
58.002	58.794
59.002	53.395
60.002	56.194
61.002	55.894
62.002	55.994
63.002	57.994
64.069	54.353
65.002	56.050
66.003	55.994
67.003	56.194
68.092	57.845
69.057	46.731
70.003	27.693
71.003	35.596
72.060	41.718
73.003	52.169
74.002	50.245
75.052	53.760
76.003	57.828
77.003	56.894
78.003	55.494
79.065	51.878
80.063	56.908
81.058	50.950
82.003	57.878
83.003	53.695
84.003	52.895
85.003	50.095
86.004	55.294
87.004	53.995
88.004	54.195
89.004	53.295
90.004	53.395
91.058	6.546
