Time [s]	Current [nA]
0.000	9.382
1.061	57.110
2.000	54.840
3.000	58.394
4.077	52.827
5.001	58.607
6.001	56.394
7.001	56.494
8.001	56.294
9.001	58.394
10.001	58.394
11.001	52.195
12.001	56.094
13.001	56.094
14.000	56.251
15.057	55.487
16.063	57.946
17.001	55.112
18.001	55.994
19.001	56.194
20.001	58.194
21.001	58.594
22.001	51.795
23.001	56.094
24.001	56.094
25.002	56.194
26.002	58.794
27.002	53.195
28.002	56.494
29.063	57.581
30.063	56.194
31.001	56.604
32.001	37.396
33.001	27.297
34.001	40.196
35.002	46.395
36.002	51.595
37.002	56.894
38.002	51.895
39.002	56.594
40.002	56.194
41.002	56.094
42.002	58.494
43.002	57.694
44.002	52.395
45.064	58.430
46.063	55.450
47.003	54.356
48.058	55.160
49.002	61.435
50.063	54.566
51.059	55.818
52.002	53.865
53.002	56.894
54.002	57.694
55.002	53.595
56.003	56.394
57.064	57.487
58.063	55.450
59.003	56.484
60.003	58.294
61.003	52.295
62.062	57.312
63.003	53.661
64.003	55.794
65.003	58.794
66.014	57.222
67.063	54.046
68.003	53.505
69.003	55.594
70.069	59.656
71.003	56.418
72.084	52.631
73.069	57.456
74.064	55.874
75.003	53.456
76.004	57.794
77.004	57.994
78.004	52.195
79.066	57.527
80.067	55.938
81.004	56.131
82.004	58.194
83.004	51.595
84.003	56.751
85.003	55.394
86.004	55.694
87.062	54.909
88.004	61.459
89.004	51.795
90.004	55.794
91.004	26.197
