Time [s]	Current [nA]
0.000	1.687
1.083	60.751
2.000	56.483
3.000	54.195
4.000	57.494
5.001	57.094
6.001	57.094
7.001	59.494
8.001	54.095
9.001	57.494
10.062	59.937
11.064	56.881
12.001	55.064
13.062	57.016
14.055	53.368
15.002	61.093
16.063	53.623
17.001	60.868
18.071	54.761
19.057	54.964
20.001	60.587
21.001	57.694
22.001	56.894
23.001	57.094
24.001	53.895
25.002	59.094
26.064	53.855
27.002	60.762
28.002	52.795
29.002	58.994
30.002	52.095
31.002	59.294
32.002	56.594
33.067	58.210
34.067	56.394
35.001	36.934
36.002	29.997
37.068	38.176
38.002	44.963
39.067	52.577
40.059	50.902
41.002	58.849
42.002	53.495
43.002	57.494
44.002	56.894
45.061	53.870
46.003	57.531
47.003	59.194
48.003	57.394
49.003	56.794
50.003	56.794
51.105	53.443
52.064	60.891
53.002	56.498
54.064	55.173
55.002	54.685
56.003	56.794
57.003	58.494
58.003	53.795
59.003	57.494
60.068	58.304
61.003	54.647
62.003	56.594
63.003	59.194
64.003	54.095
65.003	56.894
66.004	56.594
67.004	56.594
68.004	58.994
69.003	54.249
70.003	56.694
71.003	57.294
72.003	56.394
73.065	53.102
74.003	57.350
75.003	57.994
76.066	54.232
77.004	60.442
78.004	56.694
79.004	53.895
80.004	56.694
81.004	54.195
82.069	51.732
83.004	51.866
84.004	53.095
85.067	52.443
86.069	56.182
87.004	52.401
88.069	54.924
89.004	51.011
90.004	55.594
91.004	15.398
