Time [s]	Current [nA]
0.000	17.399
0.943	61.076
1.943	56.994
2.943	55.194
3.943	59.194
4.943	57.694
5.944	56.794
6.998	53.790
7.944	62.573
8.944	54.495
9.944	57.694
10.944	57.394
11.999	53.454
12.944	59.782
13.945	59.035
14.998	51.657
16.002	57.522
16.944	59.867
17.944	56.594
18.944	58.694
19.944	52.795
20.944	58.394
21.944	57.694
22.944	56.194
23.944	56.294
25.003	55.855
25.945	56.895
26.945	57.094
27.945	56.294
28.945	56.294
29.945	58.494
30.945	51.595
31.944	59.153
33.002	53.586
33.944	59.761
34.944	56.094
35.945	58.394
37.008	55.968
37.945	54.850
38.945	55.894
39.945	56.194
40.945	57.094
41.945	57.094
42.945	53.495
43.945	56.694
44.945	55.994
45.946	55.794
46.946	58.494
47.946	53.395
48.946	56.994
49.945	55.950
50.995	53.518
51.945	58.836
52.945	53.795
54.007	60.258
54.945	54.685
55.946	55.794
56.946	55.894
58.001	55.255
58.946	56.608
59.946	56.494
60.946	56.494
61.946	55.694
62.946	55.794
63.946	58.294
64.946	53.795
65.947	56.594
67.001	53.126
67.946	59.465
69.003	55.056
69.946	55.562
70.946	57.694
71.946	56.494
72.946	55.794
73.946	55.894
74.946	58.394
75.947	53.395
76.947	56.894
77.947	55.694
78.947	56.094
79.947	58.094
81.031	53.223
82.005	54.409
82.947	59.760
84.005	52.830
84.946	59.611
85.947	57.894
86.947	53.295
87.947	57.394
89.001	24.855
