Time [s]	Current [nA]
0.000	9.237
1.058	52.452
2.000	52.967
3.000	54.995
4.058	54.437
5.059	57.294
6.001	52.967
7.001	54.595
8.001	54.695
9.001	56.994
10.001	56.594
11.077	51.389
12.000	54.274
13.060	56.126
14.060	54.595
15.000	54.995
16.001	56.494
17.001	50.395
18.061	56.315
19.001	52.442
20.001	56.494
21.002	56.238
22.001	50.646
23.001	54.795
24.001	54.095
25.002	54.295
26.061	53.630
27.002	54.830
28.001	54.749
29.001	53.895
30.001	54.095
31.001	55.794
32.001	55.095
33.001	51.495
34.001	54.095
35.001	53.895
36.002	54.395
37.002	55.794
38.002	55.994
39.002	50.295
40.064	56.021
41.002	52.340
42.002	54.695
43.002	56.394
44.002	50.995
45.063	56.126
46.002	52.178
47.002	54.095
48.002	56.294
49.059	53.448
50.002	53.229
51.002	53.695
52.002	54.095
53.002	54.095
54.002	56.694
55.002	51.795
56.003	54.495
57.003	53.995
58.003	54.195
59.003	56.194
60.003	55.994
61.003	50.395
62.076	56.285
63.002	53.234
64.002	54.495
65.061	53.870
66.003	54.559
67.003	55.294
68.003	54.195
69.003	54.295
70.061	53.019
71.003	54.347
72.003	56.094
73.003	54.395
74.061	50.846
75.003	57.531
76.004	51.695
77.004	55.694
78.004	55.294
79.004	54.295
80.004	53.895
81.003	56.151
82.003	49.795
83.053	53.995
84.003	57.468
85.003	54.295
86.004	54.095
87.004	51.795
88.004	56.394
89.004	54.695
90.004	54.295
91.004	54.395
92.004	55.094
93.004	0.700
