Time [s]	Current [nA]
0.000	28.182
1.000	53.895
2.000	31.897
3.059	23.982
4.000	33.790
5.000	41.296
6.067	49.432
7.001	49.674
8.001	47.795
9.001	53.095
10.001	54.295
11.063	57.527
12.001	52.660
13.001	56.594
14.001	52.095
15.001	56.494
16.001	54.249
17.001	54.695
18.001	52.195
19.086	57.782
20.001	54.639
21.001	54.895
22.001	55.194
23.059	51.696
24.062	57.721
25.001	54.521
26.002	50.695
27.063	56.262
28.002	53.562
29.002	56.194
30.002	55.794
31.002	52.595
32.002	55.494
33.002	54.994
34.001	55.150
35.001	57.494
36.002	52.595
37.062	57.919
38.002	53.080
39.002	55.494
40.002	55.494
41.002	52.695
42.002	56.694
43.002	56.294
44.002	55.095
45.002	55.294
46.003	52.195
47.003	57.294
48.003	55.494
49.003	56.094
50.003	54.895
51.002	55.050
52.002	52.595
53.002	56.794
54.056	52.367
55.002	58.028
56.003	55.294
57.003	52.995
58.003	56.594
59.003	55.894
60.003	55.494
61.003	56.194
62.003	55.594
63.003	52.995
64.003	57.594
65.003	55.694
66.065	51.927
67.004	59.206
68.004	53.395
69.003	56.151
70.003	52.595
71.003	55.894
72.003	55.394
73.003	55.095
74.003	56.994
75.003	57.094
76.062	53.019
77.004	53.179
78.004	55.394
79.004	57.194
80.004	57.094
81.004	52.395
82.004	55.594
83.004	55.094
84.004	54.895
85.004	57.094
86.004	52.247
87.004	56.194
88.004	55.194
89.004	55.494
90.004	55.394
91.065	54.471
92.004	56.650
93.004	20.998
