Time [s]	Current [nA]
0.000	38.796
1.000	49.895
2.000	55.294
3.000	50.895
4.000	55.694
5.059	51.980
6.001	58.274
7.001	57.494
8.000	50.145
9.057	54.488
10.000	58.743
11.056	51.889
12.000	58.045
13.000	57.194
14.000	52.395
15.001	55.494
16.001	54.595
17.001	54.994
18.001	55.494
19.001	51.795
20.001	56.894
21.058	52.596
22.001	57.682
23.001	54.595
24.001	54.095
25.002	48.395
26.001	50.445
27.059	46.404
28.001	53.922
29.001	50.495
30.001	48.095
31.001	53.095
32.001	51.795
33.001	49.995
34.001	50.395
35.002	53.395
36.002	48.595
37.002	52.195
38.002	51.795
39.002	50.895
40.002	51.095
41.002	53.295
42.064	51.690
43.001	51.115
44.001	50.695
45.056	49.046
46.002	56.971
47.002	48.195
48.002	52.595
49.002	51.995
50.002	51.095
51.002	51.895
52.002	49.095
53.064	55.456
54.002	50.315
55.003	51.595
56.003	52.595
57.003	55.394
58.003	48.395
59.003	55.194
60.003	52.595
61.052	49.471
62.056	52.086
63.060	54.775
64.002	53.498
65.002	53.395
66.003	52.495
67.003	52.495
68.003	53.895
69.005	53.987
70.003	50.797
71.056	50.992
72.003	56.172
73.003	53.195
74.003	55.794
75.003	50.995
76.004	54.295
77.004	53.395
78.003	53.448
79.089	49.811
80.003	56.121
81.003	55.294
82.003	53.995
83.003	53.795
84.003	53.895
85.003	51.195
86.004	55.894
87.004	54.895
88.004	53.195
89.004	53.695
90.004	53.595
91.004	56.194
92.004	51.795
93.004	54.395
94.035	43.352
