Time [s]	Current [nA]
0.000	8.252
1.000	53.495
2.000	26.497
3.000	28.997
4.000	41.496
5.000	46.295
6.001	50.195
7.001	52.195
8.001	56.194
9.001	51.995
10.001	55.094
11.001	54.495
12.000	55.050
13.000	56.594
14.058	53.681
15.000	53.392
16.001	55.694
17.001	54.695
18.001	54.895
19.001	56.694
20.001	52.295
21.066	56.896
22.001	52.508
23.001	54.795
24.001	56.594
25.001	56.194
26.002	51.195
27.002	54.895
28.002	54.495
29.002	54.695
30.001	56.951
31.059	53.492
32.063	55.672
33.062	54.349
34.001	52.710
35.001	56.694
36.085	51.149
37.002	56.919
38.067	56.239
39.002	52.615
40.002	54.295
41.002	56.194
42.002	57.094
43.002	50.895
44.002	54.295
45.002	54.795
46.081	57.415
47.002	53.849
48.002	51.595
49.002	55.094
50.002	54.395
51.002	54.495
52.002	56.094
53.002	51.995
54.002	55.594
55.002	54.295
56.003	54.295
57.003	54.395
58.003	56.594
59.003	51.595
60.003	54.895
61.063	55.938
62.003	52.867
63.003	56.794
64.003	51.095
65.002	55.050
66.003	55.094
67.003	54.195
68.003	54.295
69.003	56.294
70.003	51.895
71.003	55.094
72.003	54.195
73.003	54.395
74.059	53.309
75.015	59.366
76.004	50.854
77.004	54.695
78.004	54.495
79.004	54.195
80.004	56.094
81.004	52.295
82.068	56.761
83.003	52.722
84.003	54.495
85.003	56.194
86.004	54.795
87.004	51.295
88.004	54.895
89.004	53.995
90.004	54.495
91.004	56.094
92.004	51.395
93.068	56.855
94.004	0.961
