Time [s]	Current [nA]
0.000	51.066
1.000	55.894
2.000	59.694
3.000	58.894
4.000	58.994
5.001	61.394
6.001	60.994
7.001	59.494
8.063	56.586
9.001	55.965
10.057	60.221
11.066	61.441
12.000	58.988
13.000	54.195
14.000	58.194
15.001	58.594
16.001	60.994
17.001	59.894
18.002	59.934
19.001	54.149
20.001	58.294
21.062	60.314
22.001	59.206
23.001	60.994
24.001	53.795
25.057	60.184
26.002	61.793
27.002	54.695
28.002	59.794
29.001	56.151
30.001	58.994
31.001	58.094
32.001	58.194
33.001	59.994
34.001	56.394
35.002	48.695
36.002	53.595
37.002	58.794
38.002	49.195
39.002	56.894
40.002	54.595
41.002	48.695
42.002	53.195
43.056	55.308
44.002	36.149
45.003	24.798
46.083	31.293
47.002	40.475
48.002	45.395
49.002	49.695
50.002	53.795
51.002	52.795
52.002	56.294
53.002	55.894
54.002	55.494
55.002	57.394
56.003	52.295
57.003	56.594
58.003	55.794
59.003	55.194
60.003	55.594
61.059	55.297
62.003	56.986
63.003	57.394
64.002	56.551
65.002	56.094
66.062	54.858
67.099	55.346
68.003	58.512
69.003	56.694
70.003	56.494
71.003	56.194
72.003	58.694
73.003	53.595
74.003	56.694
75.003	55.994
76.004	56.494
77.004	58.594
78.004	52.695
79.004	59.194
80.004	56.794
81.004	55.594
82.003	56.251
83.004	59.035
84.003	54.249
85.003	57.994
86.004	56.794
87.004	57.094
88.004	57.994
89.004	58.794
90.004	6.599
