Time [s]	Current [nA]
0.000	54.751
1.054	53.126
2.000	61.410
3.063	56.062
3.999	54.375
5.054	52.841
6.000	58.662
7.002	57.779
8.079	52.641
9.000	57.975
10.058	53.303
11.000	59.548
12.056	52.930
13.062	57.946
14.000	55.858
15.063	52.914
16.001	53.619
17.001	55.494
18.089	55.877
19.001	57.670
20.060	54.291
21.000	54.569
22.060	57.258
23.057	55.060
24.063	57.946
25.000	55.597
26.001	50.895
27.001	56.994
28.001	55.594
29.001	55.494
30.001	57.594
31.001	52.195
32.001	55.894
33.059	57.083
34.001	53.392
35.057	54.497
36.002	60.735
37.002	55.694
38.068	53.747
39.001	54.014
40.063	58.092
41.001	55.965
42.001	52.895
43.059	52.830
44.001	58.699
45.001	55.394
46.061	54.008
47.002	53.873
48.002	57.294
49.055	53.366
50.057	54.685
51.002	58.513
52.061	54.008
53.002	55.892
54.002	55.894
55.002	55.194
56.002	55.450
57.002	56.994
58.002	51.195
59.002	57.894
60.002	55.694
61.002	55.394
62.059	52.029
63.002	60.545
64.002	52.595
65.061	53.019
66.003	58.381
67.003	54.994
68.092	51.143
69.003	58.831
70.003	57.594
71.003	55.994
72.003	55.794
73.003	55.194
74.064	54.754
75.002	55.325
76.003	51.095
77.003	56.494
78.003	55.294
79.065	57.715
80.003	55.538
81.003	52.295
82.061	52.830
83.003	58.168
84.003	55.294
85.059	54.213
86.066	54.215
87.082	49.601
88.066	46.235
89.066	50.395
90.050	38.512
