Time [s]	Current [nA]
0.000	47.295
1.000	56.594
2.058	55.382
3.061	59.615
4.000	55.160
5.001	56.294
6.059	53.586
7.000	60.036
8.000	53.795
9.064	60.050
10.058	51.604
11.056	56.107
12.000	59.210
13.058	55.193
14.000	56.682
15.000	56.894
16.060	53.819
17.001	59.399
18.001	55.894
19.001	58.194
20.001	53.495
21.001	57.494
22.001	55.794
23.056	52.886
24.057	58.536
25.000	55.774
26.075	58.746
27.062	51.869
28.060	55.606
29.001	59.399
30.001	58.294
31.001	53.195
32.059	53.964
33.001	59.760
34.001	55.394
35.001	58.094
36.087	53.359
37.002	56.279
38.060	53.870
39.002	59.124
40.059	52.786
41.060	57.936
42.063	59.216
43.001	54.472
44.057	52.741
45.001	59.104
46.002	57.894
47.070	53.178
48.002	57.076
49.002	56.594
50.002	55.794
51.002	55.894
52.002	57.894
53.002	53.395
54.002	57.194
55.002	55.694
56.003	55.694
57.003	56.594
58.003	53.295
59.064	59.937
60.060	51.601
61.057	55.461
62.002	58.830
63.002	58.194
64.002	53.195
65.002	56.594
66.003	56.894
67.003	55.694
68.003	55.694
69.003	57.994
70.003	53.395
71.060	54.015
72.061	55.439
73.003	59.230
74.062	54.763
75.003	56.105
76.072	58.796
77.003	54.345
78.059	52.646
79.003	59.104
80.062	54.952
81.003	56.317
82.060	53.826
83.003	58.743
84.003	55.594
85.065	49.665
86.092	26.677
87.004	33.988
88.004	43.096
89.004	47.895
90.140	37.408
