Time [s]	Current [nA]
0.000	53.095
1.000	52.495
2.000	57.794
3.056	53.025
4.056	55.394
5.001	58.786
6.001	57.894
7.001	54.095
8.001	55.994
9.057	51.983
10.000	57.682
11.059	53.725
12.018	58.076
13.056	50.766
14.000	59.104
15.001	55.094
16.057	52.457
17.001	61.540
18.001	53.095
19.057	53.782
20.001	58.575
21.001	55.594
22.001	56.894
23.061	55.183
24.057	52.806
25.002	59.422
26.002	55.194
27.059	53.069
28.057	58.211
29.001	55.821
30.057	53.688
31.001	58.575
32.001	55.494
33.001	56.194
34.055	55.592
35.002	56.020
36.002	57.094
37.002	55.394
38.002	55.694
39.002	57.894
40.002	53.095
41.073	58.257
42.002	54.569
43.002	55.694
44.068	57.499
45.001	56.372
46.002	53.095
47.002	56.994
48.002	55.594
49.061	52.403
50.002	61.524
51.002	52.395
52.070	59.076
53.061	51.054
54.002	59.611
55.003	55.694
56.003	53.395
57.003	57.694
58.060	53.637
59.061	32.964
60.003	30.995
61.003	40.696
62.003	42.296
63.002	53.748
64.061	50.798
65.002	58.018
66.003	55.594
67.065	54.703
68.003	56.711
69.003	56.694
70.003	55.894
71.003	56.294
72.003	57.294
73.008	56.910
74.065	55.624
75.003	54.472
76.004	55.994
77.004	55.794
78.007	58.519
79.004	53.656
80.003	56.951
81.060	52.975
82.003	59.485
83.003	56.194
84.003	54.095
85.058	55.308
86.004	59.825
87.066	57.904
88.004	54.472
89.004	57.994
90.004	53.295
91.072	6.179
