Time [s]	Current [nA]
0.000	10.344
1.000	49.695
2.000	51.495
3.000	52.195
4.000	48.895
5.001	52.995
6.001	52.895
7.001	52.295
8.001	47.795
9.001	53.595
10.001	53.395
11.001	52.295
12.001	48.595
13.000	51.246
14.000	52.295
15.001	54.595
16.001	49.895
17.001	52.495
18.001	51.995
19.001	52.295
20.059	50.940
21.001	50.950
22.001	54.095
23.001	52.495
24.001	52.295
25.002	52.895
26.002	49.695
27.002	53.495
28.065	48.819
29.064	51.947
30.001	55.384
31.068	50.604
32.085	51.519
33.001	53.925
34.001	52.595
35.002	52.295
36.002	52.295
37.002	49.695
38.002	53.895
39.062	50.278
40.002	51.059
41.002	52.595
42.002	52.995
43.064	52.255
44.002	53.833
45.003	52.895
46.003	53.195
47.003	53.295
48.002	50.545
49.002	54.995
50.085	54.842
51.063	48.973
52.002	56.650
53.002	52.795
54.002	50.295
55.003	54.895
56.003	53.895
57.003	53.495
58.003	53.395
59.003	50.495
60.003	55.294
61.003	53.395
62.003	54.095
63.003	53.695
64.065	50.748
65.060	51.202
66.062	55.583
67.003	52.598
68.059	54.824
69.003	51.160
70.003	55.494
71.003	53.795
72.003	55.594
73.003	49.495
74.068	55.206
75.003	51.760
76.066	52.725
77.066	55.994
78.004	52.447
79.004	53.195
80.004	53.295
81.004	54.595
82.067	51.077
83.069	56.481
84.003	52.457
85.066	51.219
86.004	57.350
87.004	50.895
88.065	52.681
89.066	53.941
90.004	57.031
91.004	53.595
92.004	53.795
93.004	51.495
94.004	50.995
95.004	49.695
