Time [s]	Current [nA]
0.000	18.629
1.000	55.794
2.055	53.265
3.085	61.159
3.999	51.308
5.054	55.118
6.056	56.382
7.058	55.982
8.000	59.336
9.000	53.495
10.055	54.971
11.000	58.936
12.000	56.994
13.058	53.019
14.000	59.760
15.001	52.995
16.001	58.194
17.001	51.695
18.058	57.232
19.001	53.865
20.062	59.749
21.000	55.432
22.068	52.710
23.000	56.003
24.000	55.794
25.000	55.794
26.001	58.294
27.066	55.394
28.063	56.363
29.001	53.513
30.001	55.594
31.001	57.794
32.001	50.895
33.067	59.094
34.001	54.491
35.064	57.527
36.002	53.513
37.002	57.894
38.001	52.848
39.059	53.775
40.001	59.017
41.001	55.794
42.001	52.295
43.001	56.794
44.059	55.476
45.060	56.594
46.002	53.498
47.002	60.194
48.002	52.795
49.002	58.294
50.060	53.208
51.002	53.392
52.002	60.394
53.085	51.518
54.002	57.355
55.001	57.852
56.002	51.395
57.002	55.095
58.057	57.056
59.002	55.973
60.002	57.794
61.002	51.095
62.002	56.794
63.002	55.694
64.002	55.594
65.002	57.194
66.003	52.695
67.060	57.799
68.057	55.361
69.003	53.272
70.003	57.194
71.003	58.294
72.003	55.494
73.002	52.147
74.002	55.394
75.069	57.593
76.003	56.097
77.003	53.295
78.003	56.394
79.003	55.194
80.060	52.502
81.003	60.545
82.003	50.795
83.003	57.494
84.003	56.694
85.003	55.694
86.004	55.494
87.004	53.295
88.004	57.994
89.063	53.536
90.165	27.946
