Time [s]	Current [nA]
0.000	3.431
1.000	55.394
2.000	55.894
2.999	55.650
3.999	52.995
4.999	57.994
6.000	55.894
7.000	55.694
8.000	51.395
9.000	57.094
10.002	58.377
11.000	50.997
12.000	56.494
13.000	55.394
14.064	57.231
15.001	55.336
16.001	52.995
17.001	55.394
18.001	55.194
19.001	55.095
20.001	57.394
21.078	54.776
22.000	54.116
23.000	44.596
24.000	26.597
25.000	34.997
26.001	40.596
27.001	49.795
28.001	52.795
29.001	52.495
30.001	54.895
31.001	52.795
32.001	55.194
33.001	52.795
34.001	55.094
35.002	54.994
36.002	54.795
37.002	57.094
38.001	52.047
39.001	55.494
40.001	54.895
41.066	56.614
42.079	56.362
43.001	53.899
44.001	51.795
45.001	55.494
46.002	54.795
47.002	54.495
48.002	56.594
49.002	52.095
50.002	55.194
51.002	54.295
52.002	54.795
53.002	54.695
54.002	56.994
55.002	52.495
56.067	56.855
57.002	52.722
58.002	54.995
59.059	53.732
60.002	55.032
61.074	55.965
62.002	54.520
63.002	54.695
64.063	57.016
65.002	54.840
66.003	52.295
67.003	55.494
68.003	54.695
69.003	55.094
70.003	57.094
71.003	56.994
72.003	51.095
73.002	55.650
74.002	54.795
75.002	54.595
76.060	54.205
77.003	55.456
78.003	55.494
79.003	54.695
80.003	55.394
81.003	56.994
82.003	55.294
83.003	52.595
84.003	55.394
85.003	54.695
86.004	54.994
87.004	57.194
88.054	54.280
89.004	53.258
90.065	56.922
91.003	52.660
92.081	58.528
93.033	21.847
