Time [s]	Current [nA]
0.000	37.396
1.000	57.794
2.062	55.644
3.000	54.046
4.000	55.894
5.000	55.394
6.001	52.695
7.000	57.151
8.000	56.194
9.000	56.694
10.000	55.394
11.056	52.646
12.058	57.479
13.000	56.364
14.000	56.794
15.060	52.308
16.001	59.399
17.001	57.094
18.001	51.195
19.001	57.494
20.001	56.194
21.001	55.494
22.001	55.694
23.060	54.102
24.000	56.271
25.000	56.694
26.001	55.394
27.001	55.594
28.001	57.394
29.001	50.895
30.001	57.894
31.001	56.094
32.052	52.611
33.001	58.266
34.001	57.694
35.001	52.895
36.002	56.694
37.059	52.313
38.002	58.637
39.002	56.494
40.002	52.195
41.002	57.594
42.060	53.208
43.001	58.868
44.001	55.194
45.001	57.694
46.002	52.495
47.002	56.494
48.002	55.494
49.002	55.094
50.002	55.494
51.002	57.594
52.063	54.848
53.002	53.669
54.002	55.095
55.002	55.094
56.003	57.594
57.003	52.695
58.003	55.894
59.002	56.050
60.060	51.980
61.002	58.487
62.004	57.180
63.002	52.600
64.002	56.094
65.060	52.123
66.003	58.637
67.003	52.295
68.003	55.794
69.003	36.496
70.003	30.697
71.056	37.983
72.003	48.886
73.003	52.795
74.003	50.495
75.003	54.195
76.061	52.313
77.061	54.595
78.056	57.281
79.085	54.611
80.061	53.683
81.065	55.273
82.058	54.778
83.054	55.115
84.061	56.598
85.066	58.162
86.062	50.597
87.061	55.050
88.060	54.949
89.083	54.931
90.063	57.953
91.065	52.490
