Time [s]	Current [nA]
0.000	39.504
1.000	44.904
2.000	46.405
3.061	42.511
4.057	44.683
4.999	46.982
5.999	42.204
7.062	47.982
7.999	43.227
8.999	44.404
9.999	44.604
10.999	45.605
12.077	42.212
12.998	46.259
13.998	45.004
14.997	44.304
15.997	44.704
16.997	46.305
18.053	40.345
18.997	47.780
19.997	44.404
20.997	44.304
22.080	41.278
22.997	45.806
23.997	46.005
24.997	44.904
25.996	44.204
26.996	40.904
27.996	20.102
28.996	26.603
29.996	33.903
30.995	38.142
32.051	38.451
32.995	44.602
33.995	41.004
34.995	46.405
35.994	44.804
36.994	44.404
37.994	44.404
38.994	42.104
39.994	45.805
41.083	46.561
41.994	44.461
42.994	41.004
44.052	46.129
45.055	46.419
45.993	44.674
46.993	41.304
48.051	46.224
48.992	42.725
49.992	46.005
50.992	45.105
51.992	42.504
53.057	46.202
53.992	42.464
54.991	44.404
55.991	46.305
56.991	46.105
57.991	41.204
58.991	44.504
59.991	44.604
60.991	45.805
61.991	46.005
62.991	42.604
63.991	44.904
64.990	44.304
65.989	44.149
66.989	46.205
67.989	46.705
69.050	43.077
69.989	41.857
70.989	41.104
71.989	40.404
73.047	39.512
74.047	41.304
74.989	39.601
75.988	40.904
76.988	40.304
77.988	41.404
78.988	38.304
79.988	41.704
80.988	41.604
81.988	40.704
82.987	40.545
84.044	39.550
84.987	41.574
85.986	41.904
86.986	41.604
88.047	43.642
88.986	41.538
89.986	43.404
90.986	38.104
91.986	42.904
93.052	43.062
93.986	41.439
94.986	39.204
95.985	43.304
96.985	42.604
97.985	40.904
98.985	42.304
99.985	43.504
100.984	39.844
101.984	44.504
102.984	43.104
103.984	42.904
104.984	43.004
105.983	44.804
107.045	42.942
107.983	42.115
108.983	43.204
109.983	43.004
110.983	43.904
111.983	39.504
112.983	45.705
114.041	41.119
115.037	42.933
116.078	30.647
