Time [s]	Current [nA]
0.000	19.998
1.000	46.695
2.000	51.095
3.000	45.095
4.000	48.695
5.000	49.495
6.057	47.912
7.001	52.537
8.004	49.945
9.061	46.542
10.001	47.229
11.001	48.495
12.063	52.349
13.001	44.772
14.001	49.295
15.001	48.695
16.002	48.695
17.002	49.695
18.001	50.045
19.001	46.995
20.001	48.795
21.001	47.895
22.001	48.195
23.058	48.056
24.001	53.759
25.001	44.796
26.002	48.495
27.064	49.995
28.002	47.330
29.002	51.195
30.002	46.295
31.002	48.995
32.002	48.795
33.002	52.995
34.002	46.195
35.001	50.846
36.002	45.095
37.002	49.695
38.002	49.095
39.002	49.295
40.002	50.795
41.002	46.695
42.060	46.593
43.002	51.693
44.002	48.495
45.002	50.995
46.003	45.995
47.003	49.095
48.003	49.295
49.003	48.595
50.003	48.695
51.003	50.795
52.065	48.583
53.002	47.167
54.002	48.595
55.002	48.595
56.003	50.695
57.003	44.996
58.003	50.295
59.061	46.404
60.058	48.942
61.003	51.529
62.003	50.395
63.003	46.395
64.055	47.144
65.062	48.206
66.059	48.741
67.063	49.696
68.095	48.057
69.004	51.810
70.003	49.044
71.003	49.495
72.061	46.026
73.058	46.535
74.003	53.328
75.003	45.295
76.066	49.524
77.004	46.797
78.004	48.595
79.004	51.195
80.004	50.395
81.004	44.596
82.004	48.395
83.004	48.495
84.004	49.995
85.004	50.495
86.005	44.796
87.005	49.095
88.004	48.043
89.004	48.395
90.058	47.434
91.063	50.244
92.004	47.179
93.062	49.522
94.004	46.811
95.004	50.095
96.005	50.595
97.005	44.296
98.066	52.021
99.005	46.534
100.005	48.395
101.005	50.295
102.005	46.295
103.022	22.417
