Time [s]	Current [nA]
0.000	15.498
1.000	25.297
2.069	36.853
3.000	40.920
4.060	43.392
5.001	44.783
6.067	50.089
7.001	50.423
8.001	47.495
9.001	50.595
10.001	50.395
11.000	50.245
12.000	50.095
13.000	48.195
14.000	51.695
15.001	51.195
16.001	50.095
17.060	48.059
18.001	51.004
19.001	52.595
20.001	46.295
21.001	50.995
22.001	50.095
23.001	50.395
24.001	52.595
25.002	48.095
26.002	50.795
27.002	50.595
28.002	50.395
29.001	52.747
30.001	47.095
31.001	51.895
32.001	51.595
33.001	50.195
34.001	50.595
35.065	48.913
36.058	48.535
37.002	53.914
38.002	50.595
39.057	47.768
40.059	52.290
41.002	48.776
42.002	52.695
43.002	51.595
44.002	50.195
45.003	50.495
46.060	49.569
47.002	50.950
48.060	48.766
49.002	54.135
50.059	47.677
51.002	55.668
52.002	47.295
53.002	52.795
54.060	48.483
55.003	54.453
56.003	50.795
57.066	50.324
58.003	51.009
59.064	48.723
60.003	49.196
61.003	50.795
62.003	50.695
63.003	53.195
64.002	52.147
65.065	48.771
66.064	50.846
67.064	50.795
68.057	48.132
69.003	55.597
70.003	46.395
71.003	51.695
72.003	50.895
73.003	51.095
74.003	52.895
75.003	52.695
76.070	49.245
77.004	49.246
78.004	51.395
79.067	49.854
80.004	51.329
81.003	51.446
82.059	49.048
83.065	55.163
84.003	48.822
85.062	49.806
86.004	51.481
87.004	51.895
88.004	50.495
89.004	50.395
90.063	49.665
91.004	50.048
92.059	50.042
93.058	51.146
94.004	53.272
95.004	51.095
96.005	52.595
97.005	48.495
98.005	51.995
99.061	48.007
100.213	36.455
