Time [s]	Current [nA]
0.000	19.639
0.941	27.627
1.941	36.896
2.940	41.938
3.940	42.196
4.940	45.495
5.999	48.105
6.941	45.961
7.941	49.595
8.941	49.395
9.941	44.696
10.941	47.795
11.941	47.495
12.941	47.695
13.941	50.195
14.941	45.395
15.942	47.695
17.003	48.911
17.942	46.428
18.998	46.776
20.000	49.296
20.941	46.967
21.941	47.595
22.941	47.395
23.941	47.695
24.941	49.595
25.942	49.095
26.942	44.096
27.942	47.295
28.942	47.695
29.942	49.395
30.942	49.395
31.942	43.696
32.942	48.095
33.942	47.095
34.942	47.395
35.994	46.903
36.943	47.940
38.008	49.291
39.003	47.633
39.942	45.789
40.942	49.595
41.942	47.695
42.942	44.995
43.942	47.695
44.942	47.095
45.943	47.495
47.001	47.065
47.943	47.660
48.943	47.895
49.943	47.595
50.943	47.595
52.023	50.273
52.943	46.952
53.943	44.096
55.003	46.127
55.943	41.636
56.943	43.396
57.943	44.496
58.943	45.995
59.943	40.296
60.943	42.696
61.943	43.396
62.943	43.496
64.000	42.947
64.943	44.428
66.010	45.774
66.944	42.073
67.944	43.696
68.944	45.595
69.944	45.195
70.944	40.796
71.944	44.196
72.943	44.140
74.009	45.586
74.943	44.000
75.944	42.196
76.944	43.996
78.005	45.330
78.944	42.701
79.944	46.495
80.944	46.295
81.944	41.396
82.944	45.895
83.944	44.796
84.944	44.696
85.945	47.495
86.995	44.757
87.945	43.996
88.945	45.995
90.003	47.632
91.007	47.605
91.944	44.819
92.944	43.596
93.944	45.595
94.944	45.495
95.945	46.095
96.945	47.895
97.945	47.395
98.945	42.796
100.003	47.916
100.945	44.051
101.945	46.195
103.003	44.892
103.945	46.174
104.945	46.795
105.946	46.395
106.946	46.695
107.945	48.143
109.084	30.638
