Time [s]	Current [nA]
0.000	27.680
1.000	46.695
2.058	47.916
3.000	53.392
4.000	48.995
5.001	49.295
6.001	50.195
7.001	46.195
8.001	50.895
9.001	49.795
10.001	49.195
11.062	46.555
12.001	49.622
13.000	51.346
14.000	50.295
15.001	49.195
16.001	49.095
17.001	49.395
18.001	47.395
19.001	51.295
20.001	49.495
21.001	49.395
22.001	49.395
23.001	47.395
24.001	51.495
25.002	45.395
26.002	50.095
27.002	49.295
28.002	50.195
29.002	46.595
30.001	51.146
31.001	49.495
32.059	46.309
33.001	51.800
34.001	46.095
35.002	49.295
36.002	50.995
37.064	46.323
38.064	48.795
39.064	48.795
40.072	50.094
41.002	50.640
42.002	49.495
43.002	48.895
44.002	45.095
45.003	50.495
46.003	48.995
47.003	46.695
48.002	49.344
49.002	48.395
50.002	48.395
51.058	48.007
52.002	49.148
53.002	49.595
54.002	48.795
55.003	48.695
56.003	48.995
57.003	51.095
58.003	46.395
59.003	49.895
60.003	49.695
61.003	49.395
62.061	48.105
63.003	49.464
64.003	50.195
65.002	48.744
66.068	46.099
67.003	52.508
68.068	48.540
69.003	49.300
70.003	49.695
71.003	48.995
72.003	49.095
73.003	46.495
74.003	50.995
75.003	49.695
76.004	49.695
77.004	49.195
78.004	48.795
79.004	46.795
80.004	51.395
81.066	46.982
82.003	52.289
83.060	46.353
84.003	49.412
85.003	50.395
86.067	47.973
87.004	52.823
88.004	49.195
89.066	46.323
90.004	49.675
91.061	48.529
92.004	52.911
93.004	49.395
94.004	49.395
95.004	47.395
96.005	49.495
97.005	47.395
98.005	49.595
99.005	49.095
100.004	49.244
101.004	50.895
102.119	16.859
