Time [s]	Current [nA]
0.000	46.877
1.000	53.795
2.000	49.295
3.000	51.895
4.000	50.995
5.001	51.395
6.056	50.327
7.001	49.519
8.001	53.095
9.001	52.095
10.058	48.245
11.058	51.495
12.060	52.789
13.062	53.388
14.059	46.836
15.001	54.192
16.001	50.995
17.001	52.995
18.001	46.795
19.001	54.095
20.001	51.195
21.001	50.995
22.001	51.195
23.001	48.595
24.001	52.995
25.002	51.395
26.002	50.695
27.055	48.618
28.089	49.511
29.059	54.118
30.001	51.481
31.057	49.237
32.001	53.808
33.001	50.795
34.001	52.895
35.002	48.695
36.002	51.595
37.002	51.095
38.002	50.795
39.002	51.595
40.002	48.795
41.064	49.995
42.002	54.792
43.002	50.595
44.058	48.196
45.002	51.214
46.063	50.136
47.002	49.409
48.002	52.495
49.002	50.695
50.002	50.895
51.002	53.395
52.002	48.395
53.059	49.191
54.002	54.183
55.003	50.395
56.003	48.295
57.107	51.444
58.003	52.785
59.003	51.795
60.003	50.895
61.065	48.112
62.063	53.101
63.002	50.794
64.002	51.495
65.002	50.595
66.003	50.795
67.003	52.795
68.003	46.295
69.003	53.295
70.003	52.195
71.003	50.695
72.003	51.095
73.003	48.495
74.064	49.854
75.003	55.053
76.058	48.762
77.060	51.093
78.096	50.092
79.059	49.216
80.003	54.550
81.003	44.096
82.003	47.095
83.003	50.895
84.065	47.076
85.059	45.011
86.004	46.027
87.064	48.580
88.004	48.931
89.004	42.696
90.066	51.313
91.063	45.231
92.012	50.575
93.004	43.342
94.058	48.382
95.004	45.873
96.005	48.895
97.074	44.149
98.004	46.985
99.055	33.203
