Time [s]	Current [nA]
0.000	35.096
1.000	53.495
2.000	48.795
3.000	51.895
4.000	51.195
5.000	51.495
6.056	49.948
7.001	56.396
8.064	49.666
9.001	49.195
10.001	51.295
11.001	51.195
12.001	53.595
13.001	48.595
14.001	51.595
15.063	52.681
16.002	49.090
17.056	49.995
18.056	43.396
19.001	24.442
20.001	33.797
21.001	41.096
22.066	47.413
23.001	49.407
24.001	46.995
25.001	50.995
26.002	50.995
27.002	50.995
28.002	52.595
29.002	52.795
30.063	49.382
31.002	49.090
32.002	50.895
33.002	50.795
34.056	49.900
35.001	56.185
36.062	49.335
37.002	49.144
38.002	50.895
39.002	52.895
40.087	47.276
41.002	53.765
42.002	51.195
43.002	50.995
44.063	52.681
45.002	50.581
46.061	50.184
47.003	50.420
48.065	52.255
49.003	49.462
50.003	51.595
51.003	52.495
52.002	48.343
53.067	52.859
54.063	50.899
55.002	48.983
56.003	52.195
57.062	49.948
58.003	50.367
59.003	50.595
60.063	52.731
61.101	49.224
62.003	53.321
63.003	48.195
64.003	50.995
65.003	50.695
66.069	52.389
67.004	51.225
68.004	47.695
69.078	52.323
70.003	50.265
71.003	50.595
72.070	52.104
73.003	51.335
74.003	48.295
75.003	51.095
76.004	50.695
77.004	50.695
78.004	52.295
79.010	52.480
80.004	47.581
81.004	50.995
82.064	52.165
83.004	48.931
84.004	52.195
85.063	49.806
86.005	50.526
87.004	50.546
88.004	50.695
89.004	52.695
90.090	47.049
91.065	54.866
92.004	49.303
93.004	50.795
94.004	50.895
95.004	52.395
96.005	52.595
97.070	49.009
98.005	48.872
99.066	43.822
