Time [s]	Current [nA]
0.000	7.858
0.938	56.604
1.938	50.295
2.938	54.695
4.001	50.324
4.937	56.298
5.938	52.695
6.938	53.095
7.938	50.295
8.938	54.795
9.938	53.995
10.938	52.795
11.938	52.795
12.995	51.650
14.004	55.099
14.938	51.387
15.939	53.095
16.939	52.595
17.939	52.995
18.939	50.295
19.939	54.994
20.996	50.231
21.995	52.647
22.938	55.880
23.938	49.495
24.938	53.395
25.939	54.994
26.939	52.995
27.939	52.495
28.939	52.895
29.939	49.895
30.939	54.695
31.939	53.695
32.939	52.595
33.939	52.495
34.939	54.395
36.015	50.321
36.940	54.049
37.940	52.895
38.940	52.295
39.996	49.616
40.997	54.440
41.939	53.073
42.939	54.095
43.939	52.695
44.939	52.795
46.021	49.116
46.940	55.054
47.940	54.994
48.940	48.995
49.940	52.295
50.940	52.695
51.940	54.895
52.998	51.318
53.940	51.375
55.005	54.455
55.941	50.583
56.940	52.247
57.997	51.556
58.940	52.699
60.001	54.471
60.940	50.155
61.940	52.295
62.940	54.195
63.946	54.269
64.940	48.587
65.941	52.795
66.941	52.295
67.941	52.195
68.941	53.995
69.941	49.795
70.941	52.595
71.941	52.095
73.002	53.623
73.941	52.391
74.940	52.747
76.002	51.833
76.941	50.474
77.941	52.295
78.941	52.395
79.941	53.695
80.941	50.495
81.941	52.895
82.941	52.295
83.941	52.295
84.941	52.695
85.942	54.595
86.942	49.995
88.004	54.703
88.942	50.848
89.942	53.095
90.942	49.895
91.941	54.249
93.005	49.901
94.004	52.247
94.941	55.704
95.942	5.799
