Time [s]	Current [nA]
0.000	16.604
1.000	67.693
2.000	67.693
3.000	63.394
4.000	67.493
4.999	67.461
6.000	66.893
7.056	62.115
8.000	69.802
9.000	62.394
10.061	70.775
11.000	64.211
12.000	66.493
13.000	65.993
14.000	62.294
15.001	66.393
16.001	69.293
17.001	66.193
18.057	62.210
19.001	70.226
20.001	68.493
21.001	62.794
22.001	67.193
23.000	66.360
24.057	62.529
25.000	71.679
26.001	61.494
27.001	68.793
28.001	66.793
29.001	65.693
30.001	65.593
31.001	68.293
32.001	62.794
33.001	66.893
34.001	65.693
35.002	65.793
36.002	65.693
37.054	64.727
38.057	62.008
39.002	70.575
40.001	64.758
41.001	65.194
42.001	68.093
43.064	65.186
44.001	63.281
45.001	66.793
46.002	64.594
47.057	61.605
48.002	65.602
49.059	64.800
50.060	65.728
51.002	68.677
52.002	64.994
53.062	64.145
54.002	63.930
55.060	63.854
56.003	69.770
57.003	65.893
58.002	65.259
59.002	62.394
60.002	67.793
61.058	62.494
62.002	68.955
63.056	62.138
64.002	71.240
65.002	60.094
66.003	68.793
67.060	62.245
68.003	68.498
69.003	65.293
70.003	62.394
71.003	67.193
72.003	66.293
73.003	63.994
74.003	61.594
75.002	60.454
76.007	63.739
77.003	7.228
