Time [s]	Current [nA]
0.000	34.018
0.999	49.850
1.938	46.858
2.938	48.800
3.938	50.300
4.938	50.400
5.938	45.000
6.938	49.400
7.938	49.000
9.004	52.251
9.943	47.604
10.998	50.332
11.938	48.085
12.999	50.895
13.938	47.391
14.938	51.700
15.938	51.700
16.938	46.700
17.998	51.698
18.996	50.501
20.025	50.243
21.000	47.487
21.995	52.161
22.937	49.257
23.937	50.700
25.000	52.117
25.938	51.812
26.946	52.679
28.000	49.526
28.999	50.150
29.937	48.934
30.937	51.000
31.940	52.144
32.940	52.200
33.999	48.725
34.937	48.827
35.936	51.051
37.001	54.742
37.946	51.111
38.936	47.879
39.936	51.300
40.936	50.600
41.938	50.599
42.939	52.847
43.999	50.472
45.001	52.994
46.001	51.400
47.005	51.394
47.936	51.987
48.944	52.480
49.951	52.234
50.936	47.919
51.938	50.898
52.937	51.351
53.935	53.607
54.995	50.943
55.935	51.383
56.935	51.900
57.937	51.397
58.935	53.707
59.941	51.889
60.996	52.227
61.935	50.692
62.996	53.629
63.935	49.734
64.937	53.693
65.995	52.268
66.935	50.213
67.935	51.900
68.998	53.716
69.938	50.319
70.934	55.020
71.936	53.393
72.934	48.096
73.995	53.440
74.934	50.160
75.934	53.900
76.992	51.701
77.938	50.846
78.934	52.711
79.934	52.400
80.934	52.300
81.934	54.100
83.001	51.171
83.934	51.983
84.934	52.100
85.995	53.440
86.991	48.996
87.934	57.476
88.941	51.936
89.933	48.589
90.994	51.932
91.996	24.052
92.935	28.860
93.940	39.801
94.933	40.685
95.933	47.600
96.936	49.352
97.933	52.056
99.215	30.343
