Time [s]	Current [nA]
0.000	54.356
1.000	69.393
2.000	65.993
3.000	65.493
4.000	65.693
5.000	62.294
6.001	67.593
7.001	66.993
8.001	65.393
9.001	65.793
10.000	65.959
11.000	61.194
12.000	67.693
13.000	65.593
14.000	64.594
15.000	65.093
16.001	67.293
17.001	61.894
18.001	66.293
19.001	64.694
20.001	65.393
21.001	65.593
22.001	62.594
23.054	64.761
24.001	69.159
25.059	61.583
26.002	69.134
27.002	67.793
28.001	62.156
29.001	66.293
30.001	66.293
31.001	65.293
32.001	65.493
33.001	61.894
34.001	67.793
35.001	66.093
36.002	65.093
37.002	65.393
38.002	62.394
39.002	66.093
40.002	68.693
41.002	66.693
42.002	66.193
43.002	66.393
44.002	62.694
45.065	70.332
46.002	63.921
47.059	61.962
48.002	69.452
49.066	64.091
50.002	63.989
51.002	68.593
52.002	65.693
53.002	64.794
54.058	61.831
55.002	65.777
56.003	67.593
57.003	67.193
58.003	65.193
59.003	65.393
60.003	65.893
61.003	62.594
62.003	67.793
63.002	66.360
64.002	65.193
65.002	65.593
66.003	67.393
67.003	63.394
68.003	66.093
69.003	66.293
70.003	65.993
71.003	60.594
72.003	68.093
73.058	64.638
74.003	63.592
75.065	67.571
76.117	34.027
