Time [s]	Current [nA]
0.000	24.945
1.000	64.194
1.999	63.557
3.064	61.778
3.999	63.416
5.062	59.881
6.000	61.081
7.000	67.793
8.000	58.394
9.068	60.481
10.000	69.735
11.000	58.194
12.000	62.794
13.000	63.394
14.000	60.094
15.000	64.594
16.001	63.494
17.001	62.094
18.001	62.294
19.000	62.156
20.000	59.794
21.000	64.694
22.000	62.994
23.000	62.094
24.000	62.594
25.000	64.294
26.066	61.308
27.001	60.422
28.001	63.394
29.001	62.094
30.001	62.094
31.001	64.494
32.001	59.394
33.001	63.194
34.001	61.794
35.056	59.007
36.060	64.436
37.001	61.949
38.001	63.794
39.001	62.694
40.001	61.694
41.001	61.894
42.001	63.394
43.001	58.694
44.001	62.494
45.001	61.394
46.002	62.094
47.002	58.494
48.002	61.294
49.064	66.283
50.002	60.229
51.002	61.094
52.002	60.994
53.002	63.594
54.001	58.653
55.057	59.425
56.002	64.438
57.057	57.814
58.065	63.287
59.002	65.735
60.057	55.634
61.002	65.814
62.002	61.494
63.059	58.083
64.002	61.924
65.002	63.194
66.061	59.351
67.003	65.068
68.003	60.894
69.102	62.960
70.003	56.598
71.002	63.057
72.064	58.845
73.002	65.665
74.065	58.226
75.002	62.000
76.003	64.194
77.003	61.694
78.003	60.794
79.003	61.694
80.003	61.294
81.003	25.997
