Time [s]	Current [nA]
0.000	13.608
0.999	61.355
1.944	58.513
2.944	58.194
4.000	54.161
4.944	60.269
5.945	57.494
6.945	55.094
7.945	59.394
8.945	57.994
9.945	56.594
10.945	56.394
11.944	59.353
12.944	54.195
13.944	56.894
14.944	57.394
15.945	56.494
16.945	56.994
17.945	59.094
18.945	54.395
19.945	58.194
21.002	53.353
22.002	56.394
22.945	62.454
23.945	53.695
25.024	59.271
26.008	52.637
27.008	56.594
28.007	56.751
28.945	56.711
29.945	57.894
30.945	57.194
31.945	56.394
32.945	56.394
33.945	58.894
34.945	51.895
36.008	59.881
36.946	54.579
37.946	55.794
38.946	55.494
39.946	58.194
40.946	53.195
41.946	56.594
42.946	55.594
43.946	55.794
44.946	57.594
45.947	52.095
46.946	58.753
47.946	56.394
48.946	55.894
49.946	55.594
50.946	53.595
51.946	58.794
52.946	56.894
53.946	55.494
54.946	55.694
55.947	56.594
56.947	53.995
57.947	57.594
58.947	56.794
59.947	56.394
60.947	55.794
61.947	58.294
62.947	53.695
63.946	56.551
64.946	56.294
65.947	55.994
66.996	53.379
67.947	60.772
68.947	53.595
69.947	56.994
71.004	52.880
71.947	59.273
72.947	57.894
73.947	52.495
74.947	56.794
75.948	56.694
76.948	55.594
77.948	55.494
78.948	57.694
80.011	55.686
80.948	54.317
81.947	55.450
82.947	55.494
83.947	58.094
85.034	54.230
85.948	56.449
87.007	53.252
87.948	59.186
89.110	26.848
