Time [s]	Current [nA]
0.000	3.333
0.937	52.188
1.937	56.800
2.937	39.300
3.937	25.800
4.937	35.500
5.937	42.400
6.996	46.270
7.937	51.116
8.937	52.200
9.936	54.454
10.992	50.947
11.936	56.886
12.936	56.100
13.998	53.766
14.936	52.452
15.936	53.900
16.936	54.000
17.936	55.500
18.936	49.400
19.936	55.800
20.991	51.280
21.936	56.825
22.936	53.600
23.936	55.900
24.936	51.300
25.936	54.500
26.936	53.700
27.935	53.654
28.994	52.408
29.946	56.828
30.935	51.264
31.992	51.372
32.935	56.416
33.935	53.500
34.935	55.000
35.935	47.800
36.935	50.200
37.935	48.500
38.935	46.800
39.935	48.900
40.935	49.900
41.935	46.600
42.935	50.300
43.935	48.100
44.934	47.347
45.934	50.700
46.934	45.600
47.991	46.452
48.934	52.386
49.995	45.523
50.934	51.331
51.934	47.100
52.934	50.500
53.934	49.500
54.991	46.358
55.934	52.704
56.992	47.637
57.934	48.832
58.934	49.000
59.934	48.800
60.934	49.700
61.934	49.000
62.933	51.351
63.933	47.300
64.933	50.300
65.933	48.900
66.933	48.600
67.933	51.300
68.933	45.400
69.999	53.659
70.990	46.115
71.933	52.704
72.933	49.800
73.933	50.800
74.993	50.000
75.933	48.617
76.933	49.700
77.933	50.500
78.933	47.300
79.932	48.448
80.932	51.500
81.932	50.300
82.932	49.300
83.985	47.198
84.932	55.755
85.932	47.900
86.932	51.800
87.932	50.300
88.987	47.962
89.932	55.344
90.932	51.500
91.994	51.224
92.932	49.680
93.932	51.200
94.988	48.674
95.932	56.250
96.931	49.750
97.931	52.800
98.931	51.300
99.938	28.699
