Time [s]	Current [nA]
0.000	25.958
1.000	48.800
1.945	48.677
2.945	45.600
3.945	47.900
5.003	49.055
5.945	45.966
7.000	46.635
7.945	50.688
8.945	45.900
9.945	48.100
10.945	47.400
11.945	47.500
12.945	49.400
13.944	49.750
14.944	43.900
16.004	48.679
16.944	45.957
18.033	49.036
18.999	45.652
19.944	52.698
20.995	45.766
21.944	50.369
22.944	43.600
23.944	49.800
25.000	47.064
25.944	46.398
26.944	47.700
27.944	47.800
28.944	47.900
29.944	50.300
30.943	45.345
31.943	47.900
32.943	47.600
33.998	48.910
34.943	47.725
35.943	49.700
36.943	43.400
37.943	49.000
38.943	48.100
39.943	47.800
41.001	46.975
41.943	48.089
42.943	48.100
43.943	47.600
44.943	47.500
45.943	49.300
46.943	44.200
47.943	49.400
48.942	48.448
49.942	47.500
50.942	47.600
52.000	46.503
52.942	48.089
53.942	48.500
54.942	47.600
55.942	48.000
56.944	48.902
57.942	43.687
58.942	49.800
59.942	48.300
60.942	47.600
61.942	47.500
62.942	49.500
63.942	45.800
64.942	48.400
65.941	47.548
66.941	47.400
67.941	47.800
68.941	45.400
69.941	49.400
70.941	48.000
71.998	45.033
72.941	50.265
73.998	46.925
74.941	47.826
75.941	48.700
76.941	48.300
77.941	47.300
78.941	47.700
79.941	45.300
80.941	49.500
81.941	48.100
82.998	44.560
83.940	50.106
84.940	49.200
85.940	44.100
86.940	48.400
87.997	45.128
88.940	50.371
89.940	47.700
90.940	45.100
92.005	47.887
92.940	22.353
93.940	26.700
94.998	33.176
95.940	44.055
96.940	40.300
97.940	47.600
98.940	46.600
99.940	47.400
100.939	47.948
101.939	50.000
102.939	46.000
103.939	48.600
104.939	47.800
105.939	47.900
106.939	0.400
