Time [s]	Current [nA]
0.000	1.531
1.000	50.705
2.071	51.639
3.000	56.518
4.000	54.405
5.000	54.305
5.998	55.061
6.998	50.605
8.052	53.041
8.998	56.982
9.998	53.300
10.998	52.700
11.998	53.000
12.998	51.600
13.998	55.100
14.998	54.600
15.998	53.100
16.998	53.500
17.998	54.900
19.060	52.919
19.998	51.706
21.055	50.237
21.998	56.310
22.997	53.053
23.997	29.000
25.059	30.038
25.997	36.887
26.997	42.200
27.997	46.500
28.997	47.100
30.051	49.715
30.997	56.871
31.997	54.400
32.997	53.200
33.997	53.400
34.997	54.800
35.997	51.000
36.997	54.700
37.997	52.900
38.997	53.500
39.997	55.200
41.085	51.011
42.052	51.086
42.996	57.309
43.996	53.300
44.996	53.600
45.996	55.300
46.996	51.100
47.996	55.000
48.996	53.400
49.996	53.600
50.996	55.200
51.996	49.800
52.996	56.500
53.996	54.000
54.996	53.700
55.996	49.800
56.996	55.200
57.995	51.952
58.995	54.200
59.995	53.300
60.995	53.800
61.995	53.700
62.995	56.600
63.995	50.800
64.995	54.300
65.995	53.800
66.995	53.500
67.995	55.400
68.995	56.200
69.995	49.700
70.995	53.800
71.995	53.600
72.995	53.500
73.995	56.000
74.995	51.000
75.994	53.854
76.994	53.600
77.994	53.700
78.994	55.300
79.994	55.800
80.994	49.700
81.994	54.100
83.055	55.231
83.994	51.970
85.048	52.751
85.994	58.668
86.994	49.900
87.994	53.600
88.994	53.600
89.994	55.700
90.994	54.900
91.994	50.100
93.054	55.566
93.993	51.225
94.993	53.900
95.993	5.700
