Time [s]	Current [nA]
0.000	45.700
1.000	52.300
2.000	52.900
2.999	48.849
4.062	51.082
4.999	55.710
5.999	51.800
6.999	51.800
7.999	49.300
8.999	53.800
9.999	52.600
10.999	51.600
11.999	51.700
12.999	48.200
14.061	50.942
14.999	52.239
15.999	51.800
16.999	51.400
18.064	53.146
18.999	51.765
19.998	48.649
21.084	52.118
21.998	51.860
22.998	51.300
23.998	51.400
24.998	53.700
25.998	48.800
26.998	51.800
28.063	53.052
29.063	51.400
29.998	51.658
30.998	47.200
31.998	53.300
32.998	52.000
33.998	51.800
34.998	51.400
35.998	53.600
36.998	49.000
37.997	52.452
38.997	51.300
40.060	48.354
40.997	51.227
41.997	52.500
43.060	50.611
43.997	55.283
44.997	51.200
45.997	51.400
46.997	48.800
48.052	50.427
48.997	55.450
50.056	48.631
50.997	50.266
52.089	51.740
53.059	55.052
53.997	51.279
54.996	47.648
56.052	52.652
56.996	49.258
57.996	53.100
58.996	53.400
59.996	47.300
60.996	51.500
61.996	51.100
62.996	51.000
63.996	53.500
64.996	47.800
65.996	51.900
67.061	52.676
68.060	51.151
68.996	50.962
69.996	48.200
70.996	51.400
71.996	52.000
72.995	51.051
73.995	50.600
74.995	52.400
75.995	53.200
76.995	47.500
77.995	50.700
78.995	51.100
79.995	52.600
81.001	52.684
81.995	47.787
82.995	51.400
83.995	51.200
84.995	51.300
85.995	53.600
86.995	48.300
87.995	52.100
88.995	51.100
90.056	47.879
90.994	51.173
91.994	50.900
92.994	52.800
93.994	51.000
94.994	50.500
95.994	50.800
97.115	31.311
