Time [s]	Current [nA]
0.000	5.293
1.000	67.993
2.000	70.793
3.000	67.793
4.000	68.093
5.001	67.793
6.001	64.394
7.001	69.593
8.001	61.994
9.001	67.193
10.001	67.293
11.001	68.593
12.000	67.761
13.000	64.494
14.000	67.693
15.001	67.693
16.001	67.193
17.001	69.593
18.001	63.094
19.058	64.327
20.001	70.725
21.001	66.593
22.001	66.393
23.001	63.894
24.001	68.893
25.002	67.593
26.064	62.423
27.002	70.888
28.002	62.994
29.002	68.493
30.001	66.460
31.001	67.293
32.001	65.793
33.001	65.893
34.001	68.693
35.002	62.894
36.002	66.793
37.002	65.793
38.058	62.588
39.002	66.519
40.002	68.193
41.002	67.193
42.002	66.593
43.002	66.193
44.002	65.593
45.003	62.394
46.003	68.493
47.002	66.660
48.002	65.193
49.002	65.593
50.055	64.476
51.002	62.929
52.058	64.672
53.059	65.628
54.002	69.028
55.003	65.493
56.012	67.089
57.003	63.162
58.003	65.993
59.003	64.994
60.003	65.393
61.003	66.493
62.003	61.294
63.003	67.793
64.003	65.993
65.002	65.259
66.003	65.193
67.003	62.294
68.059	64.482
69.062	65.796
70.003	69.175
71.003	65.493
72.003	65.793
73.003	62.094
74.003	67.493
75.003	65.293
76.022	35.556
