Time [s]	Current [nA]
0.000	14.125
1.000	51.795
2.003	53.634
3.000	50.346
4.000	52.395
5.065	53.942
6.001	50.315
7.001	49.195
8.063	31.918
9.001	38.376
10.001	46.895
11.005	50.194
12.067	54.044
13.002	53.150
14.001	54.449
15.007	47.657
16.002	53.562
17.065	54.651
18.002	50.475
19.007	54.223
20.060	47.764
21.001	56.424
22.005	52.385
23.062	49.853
24.008	58.134
25.009	49.595
26.002	55.080
27.002	53.395
28.002	52.895
29.002	52.695
30.007	54.721
31.068	52.775
32.002	51.815
33.060	50.184
34.002	56.682
35.009	55.163
36.006	48.942
37.002	54.914
38.002	52.295
39.061	49.098
40.059	52.299
41.003	51.796
42.005	53.587
43.002	52.753
44.064	48.112
45.066	51.743
46.008	55.727
47.011	52.637
48.007	49.995
49.003	53.408
50.003	52.195
51.003	52.895
52.006	54.930
53.064	52.925
54.002	51.701
55.007	52.784
56.061	50.374
57.106	57.506
58.064	51.352
59.074	54.846
60.062	49.185
61.003	56.636
62.003	53.595
63.007	55.273
64.005	51.197
65.005	53.895
66.004	54.303
67.004	52.995
68.064	49.995
69.004	54.888
70.006	55.783
71.003	54.358
72.062	50.325
73.006	56.774
74.006	55.994
75.005	51.146
76.008	54.386
77.004	21.785
