Time [s]	Current [nA]
0.000	29.100
1.000	39.700
2.000	40.000
3.000	35.400
4.000	38.500
5.000	38.600
6.000	40.000
7.000	40.400
8.000	35.600
9.000	38.800
10.000	38.600
11.000	38.600
12.000	40.600
13.000	40.300
14.000	35.900
15.058	39.981
16.057	39.139
16.999	38.641
17.999	40.400
19.003	39.044
19.999	36.345
20.999	38.800
21.999	42.100
22.999	37.000
23.999	40.600
24.999	35.900
25.999	38.600
26.999	38.900
27.999	40.200
28.999	39.800
29.999	35.600
30.999	38.700
31.999	38.500
32.998	38.539
33.998	40.200
34.998	40.300
35.998	35.500
36.998	38.600
37.998	38.600
38.998	39.600
39.998	38.900
41.053	38.294
41.998	37.566
42.998	38.300
43.998	38.400
44.998	40.000
45.998	40.300
46.998	35.800
48.058	39.528
48.998	37.447
49.997	38.839
51.059	41.431
52.055	36.747
52.997	37.898
54.051	39.658
55.051	38.500
56.058	40.715
57.055	36.610
58.057	39.820
59.056	38.539
60.053	38.516
61.075	37.965
62.053	38.037
62.997	42.585
64.056	37.110
65.055	38.739
66.051	39.257
67.059	40.675
67.996	38.954
68.999	39.182
69.996	36.309
70.996	38.700
71.996	38.900
72.996	40.200
73.996	40.500
74.996	35.900
76.055	39.849
77.054	38.739
78.059	40.896
78.996	38.741
79.996	36.300
80.996	39.200
81.996	38.600
82.996	39.000
83.996	40.200
84.995	39.940
85.995	35.500
86.995	38.600
87.995	38.800
88.995	39.800
89.995	39.000
90.995	40.600
91.995	35.900
92.995	38.600
93.995	42.100
94.995	37.100
95.995	40.500
96.995	36.300
97.995	38.600
98.995	38.600
99.995	38.700
100.995	40.200
101.995	40.400
103.048	14.530
