Time [s]	Current [nA]
0.000	30.623
1.000	55.894
2.000	59.694
3.000	56.694
4.000	59.394
5.001	58.994
6.001	58.594
7.001	61.194
8.064	58.602
9.001	57.091
10.001	57.994
11.000	58.152
12.082	54.246
13.000	60.887
14.000	60.294
15.001	59.494
16.001	58.194
17.001	58.494
18.001	60.594
19.001	55.794
20.082	60.956
21.063	54.327
22.001	62.787
23.001	58.794
24.001	56.294
25.002	61.494
26.008	59.040
27.002	53.918
28.002	58.594
29.001	60.755
30.001	55.694
31.001	64.993
32.001	54.195
33.001	58.794
34.001	58.394
35.002	60.694
36.002	61.194
37.002	54.595
38.002	63.494
39.002	58.594
40.002	56.294
41.083	55.221
42.002	65.391
43.002	53.995
44.002	63.694
45.003	58.694
46.002	56.451
47.002	61.294
48.002	54.295
49.067	61.684
50.002	57.214
51.002	60.994
52.002	59.694
53.002	56.694
54.002	60.394
55.003	59.094
56.062	55.896
57.003	59.293
58.003	61.294
59.061	56.138
60.003	62.308
61.003	58.594
62.003	53.695
63.002	61.355
64.002	60.894
65.003	54.195
66.061	60.391
67.003	56.151
68.066	62.364
69.003	58.585
70.003	53.895
71.003	58.294
72.003	63.394
73.003	53.395
74.060	57.610
75.003	64.045
76.004	53.995
77.004	57.894
78.004	63.094
79.004	54.994
80.004	61.094
81.003	52.848
82.003	59.594
83.003	58.494
84.003	58.594
85.003	56.494
86.004	0.500
