Time [s]	Current [nA]
0.000	38.404
1.000	58.306
2.000	55.306
3.000	60.006
4.057	56.013
4.999	60.982
5.999	57.906
6.998	54.960
7.998	59.606
8.998	59.806
10.060	54.808
10.998	61.840
11.998	57.906
12.998	55.106
13.998	60.406
14.998	54.101
15.998	58.200
16.998	58.400
17.998	59.900
18.998	59.100
19.998	54.500
20.998	58.600
21.998	58.100
22.998	58.800
23.997	60.661
24.997	55.500
25.997	58.500
26.997	58.400
27.997	58.200
29.072	55.163
29.997	59.459
30.997	59.600
31.997	59.200
32.997	57.900
33.997	58.000
34.997	55.300
35.997	60.200
36.997	58.500
37.997	58.200
38.997	58.600
39.997	58.100
40.997	55.700
41.996	59.660
42.996	53.500
43.996	58.600
44.996	58.300
46.057	57.022
47.061	60.060
47.996	56.043
48.996	58.100
50.061	60.000
50.996	55.615
51.996	59.900
52.996	55.100
53.996	57.900
54.996	57.800
55.996	56.900
56.996	59.300
57.996	53.100
58.995	59.760
59.995	58.400
60.995	57.400
61.995	57.900
62.995	54.500
63.995	59.100
64.995	57.700
66.054	54.391
66.995	61.424
67.995	54.000
68.995	57.600
69.995	59.200
70.995	57.700
71.995	57.400
72.995	57.100
73.995	54.500
74.995	60.000
75.995	52.300
76.994	61.962
77.994	57.300
78.994	52.300
79.994	59.900
80.994	59.300
81.994	52.600
82.994	57.500
84.060	59.006
84.994	57.281
85.994	54.700
86.994	11.500
