Time [s]	Current [nA]
0.000	25.301
1.000	60.794
2.000	57.894
3.000	62.894
4.000	60.994
5.001	60.394
6.001	59.894
7.000	56.751
8.000	62.394
9.000	55.894
10.000	60.894
11.000	59.794
12.000	59.694
13.000	62.394
14.064	58.829
15.067	60.872
16.001	57.703
17.001	60.194
18.057	58.990
19.001	57.304
20.001	62.694
21.001	59.094
22.001	58.494
23.001	58.094
24.000	55.350
25.001	61.094
26.001	53.695
27.001	58.194
28.001	59.994
29.001	60.494
30.001	62.294
31.001	56.194
32.001	59.994
33.001	58.594
34.001	56.894
35.002	59.094
36.002	54.795
37.002	58.294
38.002	58.694
39.002	58.394
40.002	57.994
41.063	56.733
42.001	58.310
43.001	58.294
44.001	57.194
45.067	61.027
46.002	60.743
47.002	56.594
48.002	59.594
49.002	58.894
50.002	56.994
51.002	55.694
52.002	56.494
53.066	55.821
54.002	56.298
55.065	57.810
56.003	53.193
57.003	59.794
58.003	50.495
59.002	56.050
60.002	55.394
61.002	55.394
62.002	55.694
63.002	52.195
64.064	55.079
65.002	59.696
66.003	54.994
67.003	54.994
68.003	54.095
69.104	55.853
70.003	47.159
71.003	51.995
72.003	52.195
73.003	52.895
74.003	55.494
75.065	54.189
76.004	53.030
77.061	50.421
78.003	56.045
79.086	51.703
80.067	56.365
81.003	53.413
82.003	52.595
83.003	51.195
84.003	51.795
85.065	51.456
86.004	52.284
87.004	47.295
88.097	30.006
