Time [s]	Current [nA]
0.000	21.709
0.943	61.506
1.943	60.300
2.943	55.800
3.943	59.700
4.943	58.300
5.943	58.500
6.943	53.800
7.943	60.500
8.943	61.100
10.005	55.273
10.943	61.834
11.942	57.958
13.003	56.362
13.942	59.105
14.942	59.200
16.004	54.896
16.942	61.407
17.942	58.000
18.942	55.100
19.942	59.700
20.942	58.700
21.942	57.900
22.942	57.700
23.942	54.800
24.942	60.200
25.942	58.100
27.004	54.896
27.942	61.407
28.941	57.858
29.941	54.700
30.997	56.723
31.941	62.182
32.941	57.500
33.941	57.700
34.941	54.300
35.941	59.800
36.941	57.500
37.941	58.500
38.941	56.800
39.999	54.159
40.941	57.431
41.941	59.200
42.941	58.300
43.941	57.100
44.941	57.300
45.941	54.100
46.940	57.558
47.940	59.100
48.940	58.100
49.940	57.200
50.940	57.400
51.940	54.100
52.996	56.250
53.940	61.441
54.997	53.832
56.001	57.271
56.940	56.230
57.940	58.200
58.940	60.300
59.940	57.300
60.940	57.000
61.940	57.000
62.940	53.900
63.939	59.459
64.939	57.800
65.939	57.600
66.939	56.900
67.939	57.900
68.939	54.200
69.939	58.900
70.939	58.200
71.939	57.100
72.939	57.300
73.939	59.200
74.939	54.600
75.939	58.800
76.939	57.500
77.939	57.400
78.939	57.700
79.939	59.400
80.939	54.600
81.938	59.159
82.938	57.400
83.938	57.900
84.938	54.500
85.938	59.600
86.938	28.100
