Time [s]	Current [nA]
0.000	9.077
1.000	54.795
2.000	55.994
3.000	53.495
4.000	55.494
5.000	56.594
6.001	56.294
7.001	55.694
8.001	55.894
9.001	58.194
10.001	53.195
11.001	57.194
12.001	55.994
13.001	56.094
14.000	58.252
15.000	51.595
16.001	59.094
17.001	56.794
18.001	55.794
19.001	56.094
20.001	58.394
21.063	56.021
22.001	54.792
23.001	56.294
24.001	55.894
25.001	56.994
26.002	57.694
27.002	53.595
28.002	31.897
29.002	21.498
30.002	34.397
31.001	47.843
32.001	49.195
33.001	55.494
34.001	56.394
35.060	53.019
36.002	59.867
37.002	54.795
38.002	58.394
39.002	56.694
40.002	56.594
41.002	51.695
42.002	59.094
43.002	58.694
44.002	56.894
45.002	51.995
46.003	61.294
47.003	56.594
48.003	53.995
49.002	59.353
50.002	52.495
51.002	56.594
52.002	56.594
53.002	58.694
54.095	53.151
55.061	60.512
56.003	55.727
57.003	56.494
58.003	61.694
59.065	56.397
60.003	57.244
61.003	52.795
62.003	61.594
63.003	51.995
64.003	57.894
65.003	58.594
66.003	59.654
67.003	52.695
68.003	56.694
69.003	56.494
70.003	59.194
71.061	56.138
72.064	57.522
73.003	54.734
74.003	61.694
75.003	52.295
76.004	59.494
77.004	54.295
78.004	57.094
79.004	61.694
80.004	51.995
81.004	59.194
82.004	59.294
83.003	52.147
84.003	57.494
85.003	56.594
86.004	61.394
87.004	54.095
88.004	58.894
89.062	54.162
90.061	56.462
91.004	7.000
