Time [s]	Current [nA]
0.000	29.484
1.057	54.588
2.000	61.400
2.999	59.960
3.999	55.000
4.999	58.900
5.999	57.400
6.999	57.700
7.999	54.800
8.999	57.700
9.999	60.500
10.999	58.400
11.999	57.800
12.999	57.700
13.999	54.800
14.999	60.100
15.999	58.100
16.999	57.500
18.053	54.649
18.999	55.708
20.051	56.844
20.998	63.147
21.998	53.500
22.998	57.600
23.998	57.600
24.998	59.500
25.998	59.800
26.998	52.800
27.998	62.500
29.054	54.830
29.998	54.661
30.998	55.900
31.998	56.000
32.998	49.700
33.998	53.800
35.059	55.137
35.998	53.674
36.998	55.300
37.997	48.348
38.997	54.800
39.997	53.800
40.997	53.900
41.997	56.300
42.997	51.300
43.997	55.300
44.997	54.000
45.997	54.300
46.997	56.700
47.997	51.100
48.997	56.200
49.997	56.400
51.059	50.659
51.997	58.209
52.997	52.500
53.997	57.400
54.996	55.856
56.002	55.070
56.996	50.604
57.996	57.600
58.996	56.400
59.996	56.600
60.996	51.300
61.996	55.600
62.996	55.700
63.996	58.200
65.052	54.830
65.996	54.555
66.996	55.400
67.996	55.600
68.996	56.000
69.996	57.200
70.996	52.500
71.996	55.600
72.995	55.756
73.995	61.200
75.057	56.121
75.995	56.503
76.995	52.100
78.048	58.215
79.051	55.833
79.995	54.237
80.995	58.700
81.995	58.200
83.057	54.331
83.995	54.264
84.995	56.600
85.995	58.400
86.995	58.200
87.995	51.100
88.995	56.900
90.047	0.380
