Time [s]	Current [nA]
0.000	54.095
1.000	53.195
2.000	61.894
3.000	56.294
4.000	58.494
5.001	57.894
6.001	63.094
7.001	55.194
8.001	60.394
9.000	53.848
10.000	58.094
11.000	57.894
12.000	62.994
13.000	55.594
14.000	60.494
15.000	53.395
16.001	57.594
17.001	62.894
18.001	55.194
19.001	60.594
20.001	52.995
21.001	58.894
22.001	57.094
23.001	57.894
24.001	60.194
25.002	60.594
26.001	53.548
27.001	57.894
28.001	62.894
29.001	55.094
30.001	60.094
31.001	58.894
32.001	53.395
33.001	57.894
34.001	58.194
35.064	62.141
36.002	58.203
37.002	53.495
38.002	63.094
39.002	53.195
40.002	60.094
41.002	58.794
42.002	55.994
43.002	58.394
44.001	57.652
45.001	57.594
46.002	60.094
47.002	60.794
48.002	53.395
49.060	59.540
50.002	61.565
51.002	53.695
52.057	57.151
53.062	60.193
54.002	57.760
55.002	57.494
56.003	57.994
57.003	59.694
58.003	60.594
59.064	55.414
60.003	55.692
61.002	62.756
62.002	57.794
63.002	55.594
64.002	60.094
65.002	53.495
66.003	57.794
67.059	59.369
68.003	58.045
69.003	59.894
70.074	54.523
71.003	57.260
72.003	57.394
73.003	57.594
74.003	59.894
75.003	60.494
76.004	53.095
77.004	57.194
78.004	56.994
79.003	59.253
80.072	55.935
81.003	57.567
82.003	57.794
83.003	56.794
84.003	57.494
85.003	59.494
86.042	26.587
