Time [s]	Current [nA]
0.000	45.617
0.939	61.768
1.939	58.200
2.939	55.300
3.939	59.800
4.939	59.500
5.939	58.500
6.939	53.600
7.939	59.600
8.939	59.200
9.939	55.600
10.939	58.200
11.939	57.300
12.999	59.340
13.939	58.192
14.939	59.600
15.996	54.872
16.998	58.184
17.938	55.426
18.938	57.100
19.938	60.000
20.938	59.000
21.938	53.200
22.999	58.812
23.998	57.457
24.938	56.702
25.938	54.700
26.938	57.700
28.003	59.343
28.938	55.080
29.938	57.200
30.996	56.333
31.938	57.856
32.998	59.528
33.937	54.846
34.937	57.200
35.937	58.900
36.941	59.562
38.022	53.747
39.002	59.898
40.003	57.243
40.937	55.353
41.937	59.800
42.937	24.900
43.937	24.200
44.937	37.300
45.937	47.800
46.937	49.400
48.034	57.703
48.937	58.472
50.000	54.751
50.998	57.715
51.936	61.407
52.936	54.700
53.994	56.333
54.936	61.677
55.936	57.500
56.936	57.700
57.936	53.900
58.936	58.500
59.936	60.400
60.936	57.900
61.936	57.600
62.936	57.800
63.936	54.900
64.936	59.500
65.936	58.200
66.936	57.800
67.936	57.700
69.018	53.327
69.935	59.433
70.935	60.200
71.935	58.200
72.935	57.700
73.935	57.700
74.935	54.200
75.935	60.100
76.935	59.100
77.935	57.400
78.935	57.200
79.992	54.872
80.941	63.224
81.935	55.231
82.935	58.700
83.935	57.500
84.935	57.300
85.935	54.700
86.934	59.860
88.051	43.330
