Time [s]	Current [nA]
0.000	25.601
1.000	56.000
2.000	59.100
3.000	53.900
4.000	57.000
5.000	56.200
6.000	56.700
7.059	55.335
8.000	56.536
9.000	58.600
10.000	57.300
11.000	56.600
12.000	56.900
13.000	58.700
13.999	54.054
14.999	57.700
15.999	56.800
16.999	56.700
17.999	59.300
18.999	52.300
19.999	59.700
20.999	58.300
21.999	56.900
22.999	57.000
23.999	59.700
24.999	54.900
26.056	54.967
26.999	60.551
27.999	57.500
29.069	55.234
29.999	57.419
30.999	59.900
32.053	54.744
33.052	57.257
33.998	60.677
34.998	59.500
35.998	54.300
36.998	57.900
37.998	57.200
39.054	54.072
39.998	61.017
40.998	54.700
41.998	59.300
42.998	58.400
44.055	53.737
44.998	60.445
45.998	59.900
46.998	54.800
47.998	57.800
49.056	54.537
50.054	57.515
50.997	61.400
51.997	59.800
52.997	54.900
53.997	58.300
54.997	57.300
56.054	54.494
56.997	63.096
57.997	54.200
58.997	58.400
59.997	58.800
61.057	55.377
61.997	61.383
62.997	55.000
63.997	60.500
64.997	53.100
65.997	62.900
67.052	55.166
67.996	58.369
69.087	54.720
69.996	65.127
71.052	55.492
71.996	56.038
73.057	59.943
73.996	58.999
74.996	60.300
75.996	53.400
76.996	63.200
77.996	58.400
79.058	57.910
79.996	55.650
81.050	57.780
82.057	58.391
82.996	56.443
84.000	63.048
84.995	56.080
85.995	60.600
87.051	35.985
