Time [s]	Current [nA]
0.000	17.600
0.942	53.922
1.942	55.494
2.999	50.894
3.999	53.295
4.995	55.015
6.048	52.846
6.998	53.679
8.003	55.815
9.001	55.305
10.000	54.249
10.943	58.001
11.942	51.947
12.999	54.961
14.007	56.443
15.004	56.019
16.002	55.405
17.012	54.747
18.008	58.729
18.998	52.520
20.002	56.966
20.943	53.023
21.943	55.194
22.943	57.394
23.943	58.194
24.943	50.695
25.944	57.794
26.944	55.994
28.006	57.998
29.003	53.355
30.004	59.734
31.000	52.003
31.999	56.451
32.943	59.634
33.943	58.394
34.943	52.495
35.944	57.894
36.944	58.094
37.944	56.694
39.002	53.586
39.944	63.476
40.944	54.595
41.944	58.094
42.994	54.185
43.944	59.678
44.944	54.595
45.945	57.094
47.007	61.293
47.944	55.597
48.944	56.794
49.944	56.894
51.000	56.434
51.944	57.727
52.944	58.694
54.000	54.256
55.000	57.294
55.946	62.639
56.945	53.848
57.945	59.694
59.002	54.678
59.945	60.227
60.945	57.194
61.945	54.994
62.945	59.694
63.945	58.294
64.944	57.252
65.945	57.394
67.018	54.049
67.945	59.972
68.945	59.894
69.945	58.494
70.945	57.794
71.945	57.894
72.945	60.094
74.008	57.567
75.025	57.967
75.946	56.889
76.946	57.694
78.004	54.720
78.946	63.476
79.946	55.095
81.003	56.191
82.002	58.152
83.002	58.094
83.945	63.726
85.012	57.780
85.946	56.097
86.946	58.894
87.946	58.194
88.946	0.400
