Time [s]	Current [nA]
0.000	1.645
1.000	59.306
2.000	55.105
3.000	61.206
3.999	59.866
4.998	58.606
5.998	58.806
6.998	61.006
7.998	56.106
8.998	59.706
9.998	58.806
10.998	58.606
11.998	58.806
12.998	56.106
13.998	60.806
15.054	56.486
16.055	58.447
16.997	62.214
18.057	57.553
18.997	59.580
19.997	59.106
20.997	59.806
22.055	55.015
22.996	62.174
23.996	61.006
24.996	56.106
26.052	56.675
26.995	61.830
28.054	55.435
28.995	64.512
29.995	54.505
30.995	59.706
31.995	59.606
33.051	55.498
33.995	62.294
34.995	60.506
35.994	55.806
36.994	59.706
38.051	55.351
38.993	62.002
39.993	60.506
40.993	53.505
41.993	61.606
42.993	60.006
44.052	52.319
44.993	56.648
45.992	53.105
46.992	49.505
47.992	53.705
48.992	53.105
49.992	53.005
51.070	50.654
51.992	53.368
52.992	55.906
53.992	54.905
54.992	55.006
55.991	54.405
56.990	57.063
57.990	52.405
58.990	56.506
59.990	54.605
60.990	54.905
61.990	39.004
62.990	14.601
63.990	26.303
64.990	38.304
65.989	47.505
66.989	52.205
68.047	54.920
68.989	56.800
69.989	56.906
70.989	56.706
71.989	56.006
72.989	56.406
74.046	55.635
74.988	57.437
75.987	57.806
77.043	53.793
77.987	61.023
78.987	60.006
80.049	57.068
80.987	55.123
81.987	58.306
82.987	57.406
83.987	56.706
84.987	59.406
85.986	54.305
86.986	58.306
87.986	57.206
88.986	57.806
90.137	27.978
