Time [s]	Current [nA]
0.000	48.068
0.939	55.911
1.939	57.800
2.948	55.500
3.939	50.656
4.939	55.700
5.939	56.600
7.019	52.037
7.938	61.045
8.938	50.500
9.938	55.000
10.938	55.000
11.992	54.080
12.938	60.465
13.938	50.900
14.938	54.600
15.938	54.900
16.938	55.700
17.938	56.200
18.938	52.700
19.938	55.200
20.938	54.100
22.000	55.838
22.938	55.544
23.995	54.115
24.994	55.656
25.937	52.704
26.996	56.185
28.022	54.776
28.937	56.503
29.995	53.592
30.937	54.034
31.937	54.700
32.937	54.900
33.937	56.900
34.995	54.159
35.937	53.928
36.999	57.721
37.937	52.559
38.991	56.641
39.937	55.391
40.996	54.013
41.997	55.544
42.994	55.065
43.936	53.185
44.998	59.040
45.936	55.117
46.936	55.300
47.936	50.900
48.936	54.800
49.998	56.968
50.936	55.011
51.936	57.000
52.936	50.900
53.936	54.800
54.936	54.600
55.936	57.000
56.936	56.500
57.937	56.244
58.996	52.408
59.935	53.248
60.935	54.900
61.935	57.100
62.935	57.300
63.935	50.800
64.935	54.900
65.935	54.900
66.935	55.700
67.935	56.400
68.990	54.408
69.935	53.333
70.935	54.600
71.993	56.049
72.935	55.520
73.935	56.600
74.949	55.030
75.935	50.507
76.934	54.855
77.934	54.500
78.934	56.900
79.934	56.500
80.934	50.300
81.934	59.200
82.934	54.300
83.934	52.000
84.934	56.700
85.934	50.100
86.934	55.100
87.934	53.900
88.934	54.200
89.934	56.400
90.934	16.000
