Time [s]	Current [nA]
0.000	41.996
1.000	35.396
2.000	16.298
3.000	30.097
4.000	43.496
5.000	49.395
6.000	47.843
7.060	56.692
8.000	58.930
9.000	52.995
10.000	57.894
11.058	53.586
12.000	53.073
13.000	60.194
14.062	54.985
15.000	54.152
16.059	53.492
17.001	54.347
18.001	55.194
19.001	59.894
20.063	54.797
21.001	55.432
22.059	52.736
23.001	53.286
24.000	59.954
25.065	54.694
26.001	53.093
27.057	54.729
28.001	53.702
29.001	54.695
30.001	59.594
31.063	54.891
32.001	55.005
33.001	51.295
34.059	56.422
35.001	58.062
36.106	51.172
37.002	57.472
38.002	52.695
39.002	55.194
40.059	56.570
41.001	53.286
42.064	59.072
43.001	55.171
44.001	50.695
45.001	56.094
46.002	55.494
47.064	57.810
48.002	55.112
49.002	52.595
50.002	56.094
51.002	54.895
52.002	55.194
53.002	57.094
54.002	51.795
55.088	56.676
56.060	51.538
57.003	57.895
58.003	55.194
59.002	57.252
60.002	52.295
61.002	55.794
62.002	54.995
63.002	54.895
64.002	57.094
65.002	50.795
66.003	57.394
67.059	52.836
68.003	58.681
69.003	55.194
70.061	53.964
71.003	55.833
72.003	55.894
73.003	55.194
74.003	55.194
75.003	51.595
76.003	56.050
77.003	58.294
78.065	52.443
79.003	58.736
80.003	55.094
81.003	52.295
82.003	56.994
83.003	55.994
84.003	54.895
85.003	54.994
86.004	55.594
87.004	52.595
88.004	57.194
89.004	56.094
90.004	55.194
91.004	54.795
92.146	37.299
