Time [s]	Current [nA]
0.000	15.337
1.000	56.694
2.000	50.595
3.000	55.494
4.000	54.595
5.001	54.495
6.000	56.951
7.055	54.402
8.000	53.540
9.062	56.774
10.000	52.553
11.000	56.494
12.000	56.294
13.000	51.095
14.000	55.194
15.000	54.295
16.001	54.695
17.001	57.094
18.059	53.586
19.001	53.710
20.001	54.395
21.001	54.495
22.001	55.894
23.000	55.950
24.000	56.694
25.000	50.295
26.001	54.395
27.001	54.895
28.001	56.794
29.001	56.794
30.001	50.695
31.001	54.595
32.001	54.195
33.001	54.495
34.001	57.094
35.001	56.494
36.063	52.398
37.002	52.071
38.002	54.395
39.002	56.494
40.061	53.536
41.001	53.080
42.001	49.695
43.001	18.498
44.001	24.698
45.058	36.549
46.002	47.029
47.002	50.195
48.002	53.095
49.052	56.185
50.067	55.462
51.002	51.546
52.002	50.395
53.002	45.595
54.002	48.195
55.002	47.795
56.003	50.495
57.003	51.595
58.002	45.541
59.002	49.195
60.002	49.595
61.002	51.695
62.002	51.695
63.002	50.595
64.002	46.095
65.002	50.295
66.003	50.595
67.003	53.195
68.003	52.995
69.060	48.434
70.003	49.518
71.003	50.595
72.003	52.595
73.003	51.795
74.003	48.895
75.063	53.158
76.003	49.038
77.003	51.095
78.003	53.095
79.061	51.318
80.011	55.152
81.062	49.472
82.057	51.653
83.003	50.523
84.003	54.195
85.003	53.795
86.062	50.846
87.004	51.056
88.055	55.180
89.004	52.893
90.004	51.195
91.004	54.395
92.004	52.895
93.003	53.248
94.003	53.095
95.059	52.791
96.004	59.148
97.004	0.400
