Time [s]	Current [nA]
0.000	27.958
0.999	54.749
1.999	54.895
2.999	57.194
4.058	51.836
4.999	54.405
6.000	54.895
7.000	59.694
8.000	51.095
9.000	56.594
10.058	54.342
11.060	55.783
12.000	53.080
13.000	55.194
14.059	53.819
15.000	60.462
16.001	50.795
17.001	54.495
18.001	54.895
19.000	55.450
20.000	57.394
21.000	56.794
22.000	50.695
23.000	54.994
24.000	54.695
25.000	56.994
26.001	57.494
27.001	50.395
28.001	55.794
29.001	54.695
30.001	59.794
31.001	52.195
32.001	57.394
33.001	50.695
34.001	59.594
35.001	50.295
36.001	57.051
37.001	57.394
38.001	50.795
39.001	56.694
40.001	55.194
41.001	55.194
42.001	57.494
43.001	52.095
44.001	55.594
45.001	55.194
46.002	54.994
47.002	56.494
48.002	56.094
49.061	53.158
50.002	53.767
51.002	59.594
52.002	54.994
53.002	52.195
54.001	57.552
55.001	50.795
56.002	54.395
57.002	59.494
58.002	51.095
59.002	56.294
60.002	53.395
61.002	55.194
62.002	55.294
63.002	55.494
64.002	57.694
65.002	52.195
66.003	56.094
67.003	54.195
68.003	54.495
69.003	54.795
70.003	52.595
71.064	58.430
72.002	52.873
73.002	54.195
74.002	54.595
75.002	56.494
76.003	51.795
77.003	55.095
78.003	54.795
79.003	53.795
80.003	53.995
81.003	56.194
82.003	51.695
83.003	54.895
84.059	51.226
85.003	57.198
86.004	56.194
87.004	51.295
88.004	54.695
89.003	55.350
90.003	53.495
91.211	32.861
