Time [s]	Current [nA]
0.000	50.195
1.000	53.695
2.000	53.595
3.000	54.295
4.066	53.090
5.000	54.063
6.062	50.890
7.063	53.541
8.001	57.137
9.001	50.895
10.057	52.646
11.001	57.198
12.063	50.842
13.000	57.091
14.000	53.395
15.000	50.595
16.001	55.894
17.001	54.095
18.001	53.595
19.001	53.495
20.001	50.695
21.001	54.895
22.001	53.795
23.001	54.195
24.001	53.495
25.001	52.995
26.002	50.395
27.002	54.695
28.002	53.995
29.002	53.295
30.001	53.548
31.001	50.095
32.001	54.295
33.001	50.395
34.067	55.342
35.001	51.387
36.002	53.195
37.059	52.407
38.002	53.653
39.002	54.095
40.002	53.095
41.002	53.095
42.002	54.195
43.060	52.074
44.002	53.710
45.002	53.895
46.003	53.895
47.065	50.560
48.002	53.783
49.002	55.194
50.002	53.695
51.002	52.795
52.064	49.713
53.002	56.924
54.002	50.295
55.002	54.994
56.003	53.395
57.003	52.695
58.064	49.948
59.003	43.020
60.062	18.034
61.003	29.753
62.003	39.096
63.003	46.995
64.003	49.195
65.002	49.945
66.003	54.895
67.003	53.695
68.003	53.395
69.003	53.195
70.003	50.295
71.003	55.294
72.003	53.495
73.062	51.081
74.003	50.898
75.003	53.095
76.004	54.895
77.064	51.882
78.004	52.654
79.004	53.095
80.067	55.404
81.063	49.895
82.029	56.309
83.003	51.227
84.003	53.995
85.003	53.095
86.004	52.995
87.004	50.395
88.060	52.173
89.004	57.092
90.004	52.995
91.004	53.095
92.074	52.425
93.088	53.249
94.004	54.798
95.063	46.593
