Time [s]	Current [nA]
0.000	45.755
0.997	51.956
2.048	55.566
2.940	60.874
3.939	54.054
4.939	57.000
5.939	53.096
7.001	53.761
8.005	58.062
8.939	57.382
9.939	54.195
10.940	56.594
11.942	55.284
13.002	52.542
13.994	52.918
15.004	58.608
15.940	54.695
16.940	56.594
17.940	55.694
19.002	56.303
19.943	55.680
20.941	53.555
21.995	52.556
22.940	58.830
23.940	56.794
24.940	54.095
26.002	53.949
27.004	56.581
27.940	54.375
28.940	56.494
29.940	56.694
30.941	53.295
31.941	54.095
32.941	56.994
33.941	56.394
34.941	51.995
35.941	59.394
37.002	51.079
38.030	55.442
38.940	56.258
39.940	55.794
40.941	56.094
41.941	54.395
42.941	54.395
44.002	53.435
45.010	55.352
45.951	60.143
46.998	50.520
47.941	54.820
48.941	56.094
49.993	53.702
50.999	56.313
52.001	56.681
52.942	54.511
54.002	54.617
54.942	54.569
55.942	56.294
56.941	57.352
57.941	53.195
58.941	56.294
59.941	53.195
60.942	57.294
61.942	56.094
62.945	53.634
63.942	51.048
64.997	45.872
65.942	54.174
67.004	48.018
68.012	51.185
68.942	51.285
70.004	46.511
70.943	51.807
71.943	52.795
72.943	52.495
74.008	49.854
74.942	54.598
75.942	50.895
76.944	52.889
77.942	48.492
78.942	53.395
79.942	53.595
80.943	51.295
82.008	53.234
83.000	48.685
83.943	56.516
85.009	49.995
85.943	54.277
86.946	55.528
87.943	50.547
88.943	54.095
90.008	50.793
90.943	51.708
92.103	28.273
