Time [s]	Current [nA]
0.000	42.151
1.000	58.400
2.000	56.400
3.000	56.300
4.000	56.400
5.000	53.600
6.000	58.100
7.000	51.600
8.000	56.800
9.000	55.400
10.000	55.700
11.000	57.400
12.000	57.900
13.000	51.800
14.000	55.600
14.999	55.656
15.999	57.700
17.080	52.544
17.999	57.127
18.999	55.800
19.999	55.700
20.999	56.900
21.999	52.600
22.999	57.900
23.999	56.900
24.999	55.900
25.999	51.200
26.999	57.000
27.999	57.100
28.999	53.300
29.999	55.900
30.999	55.100
31.998	55.355
32.998	57.800
34.060	54.708
34.998	54.584
35.998	55.800
36.998	56.300
37.998	56.000
38.998	52.300
39.998	57.600
40.998	56.900
41.998	55.300
42.998	55.300
43.998	52.500
44.998	58.000
45.998	56.300
46.998	55.700
47.998	55.200
49.060	52.166
49.997	55.923
50.997	58.400
51.997	56.300
52.997	55.200
53.997	55.200
54.997	52.400
55.997	57.800
56.997	55.900
58.059	52.731
58.997	58.955
59.997	55.800
60.997	52.500
62.059	54.331
62.997	59.488
63.997	55.600
64.997	51.400
66.054	54.778
66.996	59.236
67.996	52.500
68.996	55.600
69.996	55.100
70.996	55.200
72.054	53.970
72.996	55.732
73.996	55.900
74.996	55.100
76.061	56.901
76.996	54.118
77.996	57.500
79.058	55.085
79.996	53.518
80.996	55.300
82.058	51.789
82.996	55.224
83.996	56.800
84.995	56.056
85.995	54.800
86.995	55.200
87.995	54.900
88.995	52.500
90.055	30.660
