Time [s]	Current [nA]
0.000	14.663
1.000	51.000
2.000	56.000
3.000	49.600
4.000	53.700
5.000	53.600
6.000	54.400
7.000	56.500
8.055	53.649
9.000	52.381
10.000	53.500
11.000	53.800
12.062	58.004
12.999	54.322
14.014	54.680
14.999	50.152
15.999	53.900
16.999	53.800
17.999	56.800
18.999	57.000
19.999	50.400
20.999	54.500
22.053	56.262
22.999	54.863
23.999	57.000
24.999	49.800
25.999	55.100
26.999	54.300
27.999	54.500
29.053	54.175
30.057	56.275
31.056	55.856
31.998	52.017
32.998	59.300
33.998	51.600
34.998	56.500
35.998	50.200
37.059	56.550
37.998	51.970
38.998	54.500
39.998	56.800
40.998	52.000
42.058	56.226
42.998	52.766
43.998	54.700
44.998	56.400
45.998	55.200
46.998	51.700
47.997	55.255
48.997	54.400
49.997	54.500
50.997	56.500
52.055	53.403
52.997	54.352
53.997	54.600
54.997	54.500
55.997	55.300
56.997	56.700
57.997	52.300
59.010	59.427
59.997	50.760
60.997	54.700
61.997	57.200
62.997	56.500
63.997	50.800
65.055	56.522
65.996	52.922
66.996	55.300
68.050	54.269
68.996	60.359
69.996	50.800
70.996	55.000
72.061	55.775
73.053	52.722
73.996	60.764
74.996	50.100
75.996	55.700
77.052	56.155
78.053	54.446
78.996	55.567
79.996	56.900
80.996	50.300
81.996	34.100
83.050	19.924
83.995	31.429
85.062	41.425
85.995	48.553
86.995	52.300
87.995	54.700
88.995	55.300
90.052	54.210
90.995	60.976
91.995	50.600
92.995	54.900
93.995	20.800
