Time [s]	Current [nA]
0.000	43.411
0.899	47.381
1.899	42.896
2.899	46.695
3.955	48.101
4.899	47.347
5.900	48.795
6.899	43.239
7.899	37.696
8.899	14.899
9.899	23.298
10.999	34.542
11.899	37.219
12.899	43.096
13.954	47.673
14.956	47.101
15.963	49.100
16.900	47.381
17.900	43.396
18.900	46.695
19.900	50.995
20.988	44.205
21.958	45.562
22.900	51.693
23.899	43.739
24.899	46.695
25.900	46.595
26.962	49.995
27.900	47.010
28.900	42.996
29.900	47.595
30.900	46.795
31.900	47.095
32.900	48.595
33.900	49.295
34.900	43.396
35.901	46.895
36.901	46.995
37.901	48.595
38.901	49.095
39.901	43.296
40.901	48.095
41.900	46.942
42.900	47.195
43.962	50.466
44.900	47.543
45.961	45.184
46.901	45.315
47.901	50.995
48.901	45.095
49.901	48.595
50.901	43.896
51.901	47.695
52.901	47.095
53.901	47.395
54.901	48.995
55.902	48.795
56.902	43.496
57.902	46.895
58.901	51.246
59.901	44.396
60.901	47.995
61.901	45.295
62.901	47.195
63.901	47.295
64.901	47.095
65.902	48.795
66.957	46.725
67.902	46.027
68.902	46.795
69.959	48.245
70.902	45.489
71.902	49.095
72.902	48.795
73.902	43.496
74.902	46.795
75.966	47.690
76.902	47.752
77.902	48.695
78.916	47.333
79.902	43.403
80.902	46.695
81.902	46.595
82.902	48.695
83.902	48.895
84.902	43.296
85.903	46.595
86.903	50.695
87.903	44.596
88.903	49.095
89.903	42.796
90.903	47.495
91.903	46.395
92.959	48.007
93.956	44.529
94.902	51.792
95.903	43.196
96.903	46.395
97.903	46.295
98.903	48.595
99.903	47.995
100.903	43.696
101.962	48.343
102.903	45.160
103.903	46.995
104.903	48.895
105.904	48.895
106.964	44.807
107.923	22.417
