Time [s]	Current [nA]
0.000	16.395
0.938	56.178
1.938	49.795
3.000	57.151
3.938	51.914
4.938	53.095
5.939	53.195
6.939	50.395
7.939	53.095
8.939	55.894
9.939	53.595
10.938	52.948
11.938	53.495
13.003	52.014
13.938	53.257
14.938	53.095
15.939	52.995
16.939	52.995
17.939	53.595
18.939	50.395
20.001	51.972
21.000	53.748
21.939	56.224
22.939	52.695
23.939	50.395
24.997	50.090
26.002	49.099
27.001	47.643
27.939	45.518
28.939	46.995
29.939	49.995
30.939	49.495
31.955	47.928
32.939	44.711
33.939	46.695
34.939	45.795
35.940	50.095
36.940	47.995
37.940	48.795
38.940	47.895
39.940	43.996
40.940	50.495
41.998	48.105
42.940	47.448
43.940	48.195
44.940	52.895
45.940	46.642
47.018	47.120
47.940	49.561
48.940	49.495
49.940	49.695
50.940	54.595
51.940	47.895
52.940	52.095
53.940	46.495
54.996	51.510
55.941	53.702
56.941	48.695
58.047	52.707
58.941	46.751
59.941	51.195
60.945	55.373
61.997	48.949
62.940	51.957
63.998	50.373
64.940	50.313
65.999	53.114
66.941	54.559
67.941	47.695
68.941	53.795
70.000	50.798
70.941	51.642
71.941	52.095
72.941	51.595
73.941	53.295
74.941	54.195
76.002	49.995
76.994	51.305
77.942	53.898
79.054	47.028
80.004	57.152
81.000	49.192
81.941	51.536
82.997	53.972
83.941	50.736
84.941	54.195
86.001	51.647
87.012	52.418
88.002	53.025
88.998	52.304
89.942	54.867
90.942	49.295
91.942	54.895
92.942	48.395
93.942	52.395
94.942	56.994
95.943	49.295
96.943	55.194
98.148	24.313
