Time [s]	Current [nA]
0.000	29.330
1.000	58.594
2.060	55.466
3.000	54.250
3.999	56.251
4.999	55.994
6.000	57.894
7.049	55.762
8.076	54.620
9.000	55.839
10.061	57.299
11.000	53.775
12.057	55.151
13.000	61.288
14.000	52.395
15.000	55.894
16.001	52.395
17.064	52.958
18.001	44.499
19.001	50.095
20.001	50.395
21.001	49.895
22.060	51.931
23.062	52.390
24.053	47.927
25.000	49.520
26.063	52.537
27.062	51.747
28.001	51.007
29.001	52.095
30.001	47.695
31.001	51.395
32.001	51.395
33.067	52.621
34.001	51.815
35.001	53.995
36.002	48.095
37.063	53.435
38.002	50.261
39.079	55.519
40.001	51.079
41.001	49.595
42.001	52.695
43.001	53.595
44.001	53.295
45.001	55.294
46.002	55.494
47.002	49.995
48.002	53.395
49.067	54.455
50.002	51.760
51.002	56.294
52.002	51.295
53.002	54.195
54.059	50.421
55.002	56.728
56.003	55.394
57.002	51.947
58.002	54.495
59.064	51.501
60.002	57.883
61.002	54.595
62.064	53.196
63.002	55.432
64.002	55.794
65.002	54.595
66.003	54.595
67.003	51.595
68.003	56.994
69.003	55.794
70.003	55.394
71.003	55.194
72.003	54.795
73.003	52.395
74.002	57.051
75.002	55.994
76.003	55.194
77.059	52.267
78.003	55.185
79.099	56.472
80.003	56.853
81.003	55.794
82.003	54.895
83.003	55.394
84.003	52.595
85.003	56.994
86.004	56.894
87.066	52.349
88.004	59.482
89.004	56.894
90.004	51.595
91.004	58.194
92.003	56.050
93.003	21.498
