Time [s]	Current [nA]
0.000	43.125
1.000	56.394
1.938	59.802
3.000	54.608
3.938	56.284
4.938	58.494
5.939	56.494
6.939	56.094
7.939	56.094
8.998	55.802
9.995	52.653
11.000	56.910
12.000	55.894
13.001	55.938
13.998	58.068
14.938	54.675
15.939	58.194
16.939	56.194
17.939	55.594
18.939	55.594
19.939	53.195
20.939	57.994
21.939	57.094
22.939	55.494
23.939	55.494
24.939	56.894
25.939	52.147
26.939	57.594
27.939	56.394
28.939	55.494
29.939	55.494
30.939	52.395
31.939	58.294
32.939	56.294
33.939	55.194
35.002	51.972
35.940	58.736
37.002	54.797
37.940	55.538
38.940	55.694
39.940	54.994
41.001	52.210
41.940	55.692
42.939	57.452
44.025	35.448
44.939	18.270
46.002	27.869
46.996	42.149
47.940	49.254
48.940	53.695
49.940	50.895
50.940	55.494
52.001	57.393
52.940	55.585
53.940	56.994
55.001	54.189
56.007	55.517
56.941	53.635
57.941	55.294
58.941	56.994
60.000	54.480
60.940	54.888
61.940	55.394
62.940	55.094
63.940	56.494
65.011	53.266
66.003	58.563
66.941	53.726
67.941	55.094
68.941	55.294
69.996	54.497
70.941	55.550
72.007	57.968
72.941	53.421
73.941	55.394
75.034	56.405
75.942	57.263
77.003	54.471
77.941	53.939
79.002	57.110
79.941	53.349
80.941	56.994
81.941	57.594
82.941	51.295
83.941	56.094
84.941	55.294
85.942	56.094
86.942	57.694
87.942	52.095
88.942	56.194
89.942	55.194
90.942	55.494
91.942	11.099
