Time [s]	Current [nA]
0.000	53.907
1.000	54.195
2.057	51.745
2.999	55.090
3.999	39.496
5.000	17.598
6.000	27.497
7.000	39.296
8.000	48.495
9.000	46.295
10.000	57.294
11.000	55.594
12.004	54.975
13.000	55.717
14.000	52.195
15.001	56.994
16.001	56.094
17.059	51.696
18.001	58.381
19.000	55.650
20.000	55.694
21.000	52.395
22.000	55.594
23.000	54.295
24.056	51.605
25.001	59.846
26.001	51.795
27.001	55.894
28.001	54.595
29.056	51.559
30.106	58.946
31.001	50.386
32.001	56.394
33.001	54.495
34.001	54.095
35.002	54.395
36.001	56.451
37.001	51.695
38.001	54.295
39.001	54.795
40.001	54.095
41.001	53.695
42.001	51.095
43.001	56.194
44.001	54.695
45.002	53.995
46.058	51.415
47.002	59.210
48.002	51.295
49.002	55.494
50.002	54.695
51.002	53.795
52.002	54.195
53.002	56.594
54.001	51.747
55.001	54.395
56.002	54.095
57.002	54.195
58.002	56.294
59.002	49.395
60.002	56.694
61.002	54.295
62.002	54.095
63.002	54.095
64.002	56.294
65.003	51.595
66.003	55.294
67.003	54.395
68.003	54.295
69.003	55.694
70.064	52.869
71.002	54.899
72.002	54.495
73.002	54.395
74.002	54.295
75.002	56.494
76.003	51.995
77.003	55.494
78.057	51.513
79.003	57.500
80.003	54.295
81.003	51.895
82.003	56.194
83.060	51.556
84.003	57.046
85.060	51.131
86.004	59.422
87.004	51.795
88.004	55.094
89.003	55.050
90.003	53.795
91.003	53.795
92.003	51.895
93.003	56.494
94.003	0.400
