Time [s]	Current [nA]
0.000	41.796
1.000	51.795
2.000	57.794
3.000	56.394
4.000	55.594
5.001	55.494
6.001	55.194
7.066	55.206
8.001	55.289
9.001	55.694
10.063	52.725
11.001	53.619
12.001	57.194
13.000	52.147
14.000	55.094
15.000	55.394
16.001	54.795
17.061	56.409
18.001	54.463
19.001	56.294
20.001	50.995
21.066	56.051
22.001	52.401
23.001	56.694
24.096	50.954
25.002	56.458
26.002	54.195
27.002	53.595
28.002	53.895
29.002	55.294
30.001	51.346
31.001	54.095
32.001	54.495
33.001	53.895
34.001	55.194
35.001	54.695
36.002	51.695
37.062	57.070
38.002	51.803
39.002	54.595
40.008	55.760
41.002	52.107
42.002	54.995
43.002	54.095
44.002	53.795
45.003	54.495
46.003	51.395
47.003	56.094
48.002	54.849
49.002	53.895
50.002	48.995
51.002	55.394
52.002	55.994
53.002	53.895
54.002	53.395
55.061	51.507
56.003	58.274
57.003	51.695
58.003	57.194
59.003	50.495
60.063	56.032
61.003	51.697
62.003	56.194
63.003	51.395
64.003	55.294
65.002	54.749
66.069	56.092
67.067	54.804
68.003	55.443
69.003	51.795
70.003	55.694
71.003	55.194
72.003	54.695
73.003	57.094
74.003	56.694
75.069	53.328
76.070	55.339
77.070	54.795
78.069	54.949
79.004	55.396
80.004	52.295
81.004	39.896
82.070	16.884
83.003	24.649
84.003	36.796
85.003	47.095
86.004	47.095
87.004	54.795
88.004	55.394
89.004	55.294
90.004	57.694
91.065	54.283
92.004	54.521
93.004	52.195
94.004	9.699
