Time [s]	Current [nA]
0.000	8.498
1.000	54.795
1.999	57.352
2.999	52.395
4.068	57.992
5.000	53.486
6.000	55.095
7.000	54.595
8.000	56.994
9.000	52.595
10.000	56.194
11.058	52.074
12.000	57.744
13.000	56.894
14.000	52.095
15.001	55.994
16.001	56.194
17.001	54.994
18.001	55.294
19.000	51.947
20.000	57.594
21.000	50.195
22.000	59.094
23.000	49.995
24.000	56.694
25.001	55.094
26.001	56.594
27.001	50.295
28.001	54.795
29.001	54.395
30.001	55.994
31.001	57.094
32.001	50.095
33.001	54.295
34.001	58.994
35.002	50.695
36.002	56.294
37.057	54.023
38.001	53.067
39.001	54.395
40.001	54.495
41.001	56.094
42.001	56.394
43.010	54.702
44.001	50.045
45.001	54.395
46.002	54.395
47.002	57.194
48.002	57.094
49.002	50.395
50.002	54.195
51.057	55.539
52.002	54.174
53.002	56.994
54.001	55.550
55.061	51.647
56.002	53.130
57.002	59.694
58.002	52.195
59.002	56.594
60.002	50.595
61.002	54.795
62.061	55.991
63.002	55.574
64.002	56.794
65.012	55.396
66.003	52.164
67.003	55.394
68.003	55.594
69.003	57.094
70.003	52.695
71.003	56.394
72.002	55.050
73.002	54.895
74.059	53.921
75.002	53.547
76.003	57.094
77.003	55.294
78.003	54.595
79.003	55.094
80.003	57.094
81.003	52.695
82.003	55.894
83.003	54.994
84.003	55.094
85.064	53.768
86.004	53.186
87.004	57.594
88.004	56.194
89.003	54.949
90.062	51.553
91.062	57.094
92.057	6.633
