Time [s]	Current [nA]
0.000	28.717
1.000	49.895
2.000	51.395
3.061	55.791
4.000	51.220
5.001	52.395
6.001	54.395
7.001	53.795
8.001	50.795
9.001	53.495
10.063	55.268
11.001	51.594
12.000	55.650
13.000	50.695
14.000	54.595
15.001	54.095
16.001	54.095
17.103	56.346
18.001	55.228
19.001	52.395
20.001	55.394
21.001	54.695
22.001	54.495
23.001	57.194
24.001	56.994
25.002	51.195
26.002	55.094
27.002	54.795
28.002	55.094
29.001	57.852
30.001	52.795
31.001	55.894
32.001	54.895
33.060	56.935
34.001	55.255
35.061	54.008
36.002	53.873
37.067	57.271
38.063	55.215
39.064	55.139
40.056	53.321
41.002	60.776
42.002	50.995
43.002	55.194
44.002	54.994
45.003	57.194
46.004	57.637
47.002	50.897
48.002	55.794
49.002	54.795
50.002	55.194
51.002	57.794
52.002	52.695
53.002	55.994
54.002	55.194
55.003	55.894
56.003	57.694
57.003	56.894
58.003	51.695
59.003	55.894
60.003	55.494
61.003	55.494
62.060	54.299
63.003	60.970
64.063	54.051
65.002	53.349
66.003	55.794
67.073	59.246
68.003	53.973
69.003	53.595
70.003	55.894
71.003	55.794
72.003	55.294
73.003	57.994
74.003	53.295
75.003	56.494
76.004	55.694
77.004	55.994
78.004	55.794
79.061	54.867
80.004	56.198
81.004	56.494
82.003	55.650
83.003	55.794
84.003	58.094
85.003	58.294
86.082	52.499
87.004	55.634
88.004	55.794
89.004	55.694
90.061	55.434
91.004	24.070
