Time [s]	Current [nA]
0.000	9.467
0.999	58.353
1.999	55.294
2.999	59.994
3.999	55.994
4.999	58.994
6.000	58.494
7.061	59.937
8.000	58.887
9.051	57.368
10.000	55.527
11.065	19.622
12.000	23.099
13.000	36.896
14.000	50.095
15.001	50.695
16.001	57.294
17.062	60.597
18.001	57.076
19.000	60.955
20.000	55.594
21.000	59.294
22.000	59.094
23.065	60.370
24.000	56.679
25.000	60.694
26.001	55.594
27.066	61.778
28.001	56.572
29.051	56.185
30.001	58.731
31.067	62.658
32.001	56.847
33.001	59.494
34.001	58.294
35.002	58.394
36.001	55.650
37.001	60.794
38.001	59.194
39.001	58.494
40.059	55.382
41.065	61.425
42.001	56.618
43.001	61.194
44.001	58.794
45.001	58.894
46.064	55.456
47.002	59.056
48.002	60.594
49.002	53.795
50.062	60.183
51.002	55.845
52.002	59.494
53.002	59.894
54.001	56.251
55.066	60.990
56.002	56.298
57.002	58.394
58.002	60.994
59.002	55.594
60.002	59.094
61.002	59.294
62.002	58.694
63.002	58.894
64.002	55.894
65.002	60.294
66.065	55.550
67.065	58.594
68.003	62.254
69.003	55.394
70.003	60.194
71.002	58.553
72.002	58.894
73.002	57.894
74.002	58.294
75.002	55.594
76.003	60.394
77.003	54.095
78.003	58.094
79.003	57.494
80.003	59.894
81.063	56.975
82.003	56.484
83.003	59.194
84.003	57.794
85.003	58.494
86.064	56.881
87.060	55.015
88.034	38.805
