Time [s]	Current [nA]
0.000	14.116
1.000	51.295
2.000	58.094
2.999	58.252
3.999	51.395
4.999	60.294
6.000	55.794
7.064	54.412
8.000	55.764
9.000	51.795
10.000	60.294
11.000	55.394
12.005	55.417
13.000	52.759
14.062	54.420
15.000	60.335
16.001	55.394
17.001	55.494
18.001	52.795
19.001	57.994
20.000	51.046
21.000	57.494
22.000	56.394
23.000	55.494
24.000	57.894
25.000	53.195
26.001	56.494
27.001	55.494
28.001	55.494
29.001	57.394
30.004	52.039
31.001	57.366
32.001	56.494
33.056	52.317
34.001	58.513
35.001	57.194
36.002	53.195
37.002	56.594
38.001	55.650
39.056	52.791
40.001	61.052
41.101	51.995
42.001	57.661
43.001	56.494
44.053	52.276
45.001	57.695
46.002	57.294
47.002	52.995
48.002	56.394
49.002	55.894
50.002	54.795
51.072	53.733
52.077	56.611
53.002	57.075
54.002	56.094
55.001	55.150
56.002	55.594
57.064	54.326
58.064	58.694
59.002	54.046
60.002	55.394
61.002	55.794
62.085	51.703
63.002	57.682
64.002	57.694
65.002	56.194
66.003	55.094
67.003	55.494
68.003	52.795
69.003	57.794
70.003	56.394
71.003	56.894
72.003	55.794
73.056	52.986
74.002	55.808
75.002	57.994
76.064	53.623
77.003	53.136
78.003	54.994
79.003	57.194
80.003	57.294
81.003	55.794
82.003	51.695
83.068	57.271
84.003	53.684
85.063	54.763
86.004	55.574
87.062	52.830
88.004	58.699
89.004	54.994
90.003	53.148
