Time [s]	Current [nA]
0.000	43.296
1.000	56.194
2.000	51.995
3.062	60.163
4.000	55.965
5.001	52.295
6.001	56.194
7.061	58.202
8.000	55.798
9.055	55.066
10.000	53.963
11.000	56.494
12.000	55.794
13.000	55.694
14.057	55.056
15.001	60.969
16.001	51.795
17.001	55.094
18.001	56.394
19.001	58.094
20.001	56.894
21.001	52.195
22.001	56.594
23.001	55.694
24.065	57.607
25.000	56.465
26.067	54.591
27.066	56.050
28.066	55.594
29.001	53.898
30.084	59.089
31.001	55.065
32.066	55.112
33.066	56.094
34.001	54.005
35.001	55.894
36.065	54.745
37.061	58.428
38.067	56.157
39.002	53.791
40.067	57.647
41.104	54.671
42.063	54.322
43.001	56.391
44.066	57.835
45.001	54.112
46.002	55.694
47.002	57.494
48.002	58.494
49.002	51.195
50.002	56.794
51.002	55.494
52.002	56.394
53.002	58.794
54.002	53.995
55.002	56.294
56.003	56.194
57.003	55.994
58.060	54.583
59.064	58.062
60.002	54.899
61.002	56.994
62.002	55.694
63.002	55.894
64.002	58.294
65.002	52.795
66.003	56.494
67.003	56.294
68.003	56.294
69.003	57.794
70.003	51.195
71.003	57.494
72.003	57.494
73.065	52.725
74.003	59.589
75.003	53.195
76.004	57.994
77.003	52.047
78.003	55.794
79.068	58.022
80.003	55.502
81.003	48.695
82.003	16.798
83.003	24.598
84.003	37.196
85.003	46.395
86.004	52.695
87.004	52.195
88.004	57.094
89.004	56.094
90.004	56.094
91.131	36.997
