Time [s]	Current [nA]
0.000	13.289
1.000	54.695
2.000	55.094
3.000	57.994
4.000	51.995
5.001	55.394
6.001	54.295
7.001	59.594
8.001	52.295
9.001	56.894
10.000	50.045
11.000	55.394
12.000	54.295
13.060	55.938
14.000	54.675
15.001	56.694
16.001	50.195
17.001	53.995
18.001	54.195
19.001	56.194
20.001	55.994
21.001	49.995
22.001	55.494
23.066	56.051
24.063	54.458
25.002	53.939
26.002	51.295
27.002	54.595
28.001	53.648
29.001	53.795
30.001	51.895
31.001	54.095
32.001	55.594
33.001	54.095
34.001	53.495
35.002	53.495
36.002	55.594
37.002	51.095
38.002	54.295
39.002	53.795
40.002	53.695
41.002	54.895
42.002	54.994
43.065	53.146
44.002	52.503
45.002	53.848
46.058	50.658
47.002	58.787
48.002	51.495
49.002	54.795
50.002	53.695
51.061	50.798
52.002	57.486
53.061	53.725
54.002	54.405
55.003	54.295
56.003	53.495
57.058	51.559
58.061	55.727
59.003	54.772
60.003	54.395
61.003	54.695
62.060	51.083
63.057	54.458
64.002	54.492
65.003	56.194
66.003	54.995
67.061	50.846
68.003	57.319
69.003	56.694
70.003	51.495
71.003	54.994
72.060	52.313
73.003	56.940
74.003	54.195
75.003	51.495
76.066	57.904
77.004	52.020
78.004	53.295
79.004	53.495
80.003	56.050
81.088	51.423
82.003	54.312
83.003	53.795
84.003	54.395
85.003	53.895
86.004	51.395
87.004	55.794
88.004	54.495
89.004	53.495
90.004	54.095
91.004	54.994
92.004	49.895
93.004	18.098
