Time [s]	Current [nA]
0.000	2.517
1.000	49.095
2.000	54.695
3.059	55.613
4.057	47.290
5.000	55.880
6.001	54.595
7.087	52.205
8.001	53.058
9.001	53.395
10.063	50.277
11.000	56.771
12.000	50.495
13.000	56.194
14.000	53.795
15.059	50.562
16.001	57.213
17.001	50.295
18.001	55.194
19.059	53.303
20.001	57.531
21.001	53.895
22.001	53.595
23.001	51.195
24.001	55.994
25.060	52.736
26.002	57.744
27.059	51.083
28.001	58.699
29.001	51.295
30.001	55.894
31.058	51.272
32.058	54.095
33.059	54.640
34.054	56.577
35.060	51.836
36.002	59.124
37.059	51.367
38.002	58.531
39.076	51.019
40.002	57.014
41.055	54.600
42.002	58.600
43.058	51.699
44.002	58.575
45.001	51.446
46.002	56.294
47.002	55.394
48.002	55.094
49.002	54.295
50.002	54.495
51.059	53.732
52.002	55.350
53.002	55.294
54.059	50.799
55.002	57.682
56.059	52.930
57.003	53.702
58.003	55.694
59.060	51.461
60.061	54.041
61.060	54.249
62.002	54.772
63.002	56.594
64.002	54.695
65.002	54.095
66.003	54.395
67.003	55.894
68.003	49.895
69.003	56.694
70.061	51.413
71.003	57.319
72.003	53.795
73.061	52.547
74.065	56.966
75.003	52.553
76.004	53.895
77.061	50.988
78.004	58.213
79.004	50.595
80.003	55.650
81.003	53.895
82.003	53.595
83.003	53.495
84.059	52.646
85.066	56.157
86.004	52.980
87.004	53.695
88.004	53.695
89.004	54.495
90.064	53.391
91.004	53.931
92.004	54.095
93.163	25.796
