Time [s]	Current [nA]
0.000	26.755
1.000	48.595
1.999	56.050
2.999	53.795
3.999	56.694
5.000	55.994
6.054	57.869
7.000	56.231
8.000	58.894
9.058	54.059
10.000	53.498
11.000	60.594
12.000	51.395
13.000	57.694
14.057	55.245
15.057	55.950
16.001	53.385
17.001	60.394
18.062	55.225
19.000	55.112
20.011	55.682
21.062	53.087
22.000	53.513
23.000	55.894
24.000	58.094
25.000	52.895
26.001	55.994
27.001	55.394
28.001	55.494
29.001	57.594
30.001	52.595
31.001	55.694
32.001	56.894
33.001	50.495
34.001	59.394
35.002	52.395
36.002	57.594
37.001	55.950
38.001	55.095
39.001	55.194
40.001	52.295
41.082	52.539
42.002	61.407
43.001	51.046
44.001	55.194
45.001	55.394
46.002	57.594
47.002	57.494
48.059	52.880
49.002	58.531
50.002	50.995
51.002	56.394
52.002	56.894
53.002	53.495
54.001	56.351
55.001	55.894
56.002	56.194
57.002	57.594
58.002	52.595
59.002	56.794
60.002	55.394
61.002	54.995
62.002	55.494
63.002	53.195
64.002	57.294
65.002	56.594
66.003	55.894
67.059	52.552
68.060	57.437
69.003	55.668
70.003	56.094
71.065	53.384
72.002	59.439
73.002	55.994
74.002	53.395
75.002	57.894
76.003	50.995
77.003	55.394
78.003	55.594
79.003	57.194
80.003	57.594
81.003	55.794
82.003	52.095
83.003	55.694
84.003	55.494
85.003	57.694
86.004	53.395
87.004	55.894
88.004	55.194
89.003	55.250
90.003	46.695
