Time [s]	Current [nA]
0.000	40.368
1.056	52.267
2.000	58.681
3.065	54.173
3.999	55.134
4.999	55.594
6.000	54.994
7.000	50.595
8.000	59.294
9.000	51.695
10.000	56.994
11.000	50.395
12.000	54.095
13.000	59.194
14.000	51.795
15.001	54.895
16.001	56.694
17.053	52.276
18.001	51.894
19.059	55.382
20.001	54.772
21.000	56.651
22.000	50.195
23.000	54.395
24.000	58.994
25.000	50.295
26.001	56.794
27.001	56.794
28.001	50.195
29.001	54.095
30.059	55.666
31.001	54.772
32.060	53.913
33.001	53.555
34.001	59.694
35.001	54.595
36.002	49.495
37.002	56.994
38.001	56.251
39.001	50.095
40.001	54.295
41.001	58.794
42.001	51.295
43.001	56.894
44.001	50.195
45.001	55.894
46.002	54.595
47.002	54.795
48.002	23.798
49.002	17.598
50.002	30.697
51.002	40.496
52.002	46.595
53.002	48.295
54.002	55.294
55.002	57.594
56.002	55.750
57.002	55.394
58.002	54.895
59.002	56.594
60.002	52.595
61.002	55.994
62.060	52.452
63.002	58.168
64.002	56.294
65.002	49.995
66.003	57.594
67.003	55.494
68.003	54.695
69.003	54.595
70.003	51.595
71.003	56.494
72.003	55.694
73.058	51.274
74.002	57.939
75.002	54.495
76.054	53.563
77.003	54.052
78.058	52.317
79.003	57.455
80.003	54.495
81.003	56.394
82.003	51.895
83.003	55.194
84.003	55.594
85.005	54.685
86.004	54.604
87.004	52.095
88.004	56.294
89.004	50.395
90.004	53.595
91.003	58.553
92.003	51.395
93.003	56.394
94.003	6.599
