Time [s]	Current [nA]
0.000	23.109
1.000	44.596
1.999	42.338
2.999	46.695
3.999	45.095
4.999	44.196
6.000	44.096
7.000	44.296
8.000	43.096
9.000	46.295
10.000	44.396
11.000	44.396
12.062	41.898
13.000	44.345
14.000	45.995
15.001	44.296
16.062	42.503
17.001	47.173
18.001	44.096
19.000	41.537
20.000	45.895
21.000	44.796
22.000	44.396
23.000	44.496
24.000	41.796
25.000	45.395
26.001	45.495
27.001	44.296
28.001	44.096
29.001	44.096
30.001	41.696
31.001	46.095
32.001	45.096
33.001	43.896
34.001	44.096
35.058	42.988
36.002	43.110
37.063	44.011
38.001	47.330
39.001	44.196
40.001	44.496
41.001	41.796
42.001	45.395
43.063	42.086
44.001	46.904
45.001	44.296
46.089	42.130
47.071	46.329
48.002	44.571
49.002	44.096
50.002	44.196
51.002	44.096
52.002	42.096
53.002	46.395
54.001	45.041
55.001	43.996
56.002	44.396
57.087	40.918
58.064	48.102
59.002	44.772
60.002	45.195
61.002	44.396
62.002	44.995
63.002	42.196
64.068	47.931
65.002	43.250
66.065	41.804
67.003	47.330
68.065	41.992
69.003	44.878
70.003	45.795
71.003	44.696
72.002	43.839
73.002	44.196
74.002	41.996
75.002	45.695
76.003	45.195
77.003	44.696
78.003	44.096
79.003	40.496
80.003	45.495
81.003	45.395
82.003	40.996
83.003	43.696
84.068	45.441
85.003	44.488
86.004	44.396
87.004	41.696
88.004	44.296
89.003	44.040
90.003	44.196
91.003	45.495
92.003	45.895
93.003	40.696
94.003	44.296
95.003	44.396
96.099	45.018
97.065	42.232
98.059	45.669
99.064	44.871
100.065	44.151
101.004	42.594
102.004	45.695
103.063	43.338
104.004	43.035
105.066	44.859
106.004	41.893
107.004	43.696
108.066	43.028
109.062	45.176
110.004	43.520
111.064	45.467
112.004	42.230
113.061	31.312
