Time [s]	Current [nA]
0.000	40.296
1.000	48.195
2.000	51.995
3.000	50.695
4.054	47.813
4.999	56.079
6.000	45.895
7.000	53.195
8.058	48.199
9.000	53.816
10.000	50.895
11.000	47.995
12.000	52.195
13.000	51.495
14.000	50.395
15.000	50.095
16.001	51.595
17.001	51.495
18.001	48.295
19.001	51.795
20.001	50.495
21.001	50.895
22.000	52.747
23.061	50.608
24.000	49.622
25.058	48.150
26.001	53.865
27.001	50.895
28.001	48.295
29.001	53.295
30.058	49.191
31.001	53.865
32.057	47.912
33.001	55.609
34.001	48.695
35.001	51.695
36.002	51.795
37.002	50.795
38.005	51.042
39.001	49.192
40.001	52.995
41.001	47.095
42.001	50.795
43.001	51.095
44.001	52.895
45.001	53.495
46.077	47.995
47.002	51.130
48.002	50.795
49.002	50.895
50.002	53.395
51.002	48.895
52.002	52.095
53.002	50.795
54.002	50.595
55.002	53.395
56.003	47.195
57.002	52.848
58.002	50.895
59.002	50.695
60.002	50.495
61.002	48.395
62.064	54.703
63.002	49.355
64.002	50.395
65.002	50.795
66.076	49.203
67.003	51.020
68.003	52.495
69.003	50.695
70.003	51.095
71.003	51.095
72.003	48.295
73.003	52.995
74.002	47.142
75.002	50.395
76.003	49.995
77.003	49.995
78.060	50.042
79.062	51.991
80.003	49.198
81.066	51.547
82.003	49.301
83.057	49.710
84.003	32.238
85.003	15.898
86.061	25.258
87.004	39.020
88.004	43.696
89.004	44.296
90.004	53.295
91.063	49.192
92.003	54.144
93.062	48.437
94.003	51.111
95.003	52.795
96.004	51.495
97.004	46.595
98.004	50.895
99.004	55.294
100.090	36.829
