Time [s]	Current [nA]
0.000	2.163
1.000	53.595
2.000	53.195
3.000	48.895
4.000	55.094
5.000	55.550
6.000	48.995
7.000	52.595
8.000	52.795
9.000	52.795
10.000	54.895
11.000	53.695
12.058	49.239
13.000	55.408
14.058	49.239
15.001	52.543
16.060	51.459
17.001	50.792
18.001	52.495
19.001	51.795
20.060	53.252
21.001	52.492
22.001	53.995
23.000	47.943
24.000	51.595
25.000	51.795
26.001	53.095
27.001	53.795
28.001	52.295
29.066	50.417
30.001	50.048
31.001	52.395
32.001	53.895
33.001	49.495
34.001	52.295
35.058	48.764
36.002	54.656
37.002	53.595
38.002	48.095
39.002	54.495
40.001	52.647
41.001	51.395
42.055	48.762
43.060	53.626
44.001	52.598
45.060	49.711
46.002	54.984
47.002	51.495
48.002	52.895
49.002	48.095
50.064	51.501
51.002	55.965
52.002	51.795
53.002	51.795
54.002	49.195
55.003	53.795
56.062	50.137
57.003	49.942
58.002	52.047
59.002	51.895
60.002	53.995
61.002	53.895
62.002	48.295
63.002	56.394
64.002	47.795
65.002	53.495
66.003	54.095
67.003	47.395
68.003	52.595
69.003	51.295
70.003	51.295
71.003	53.395
72.003	54.295
73.003	48.095
74.003	51.895
75.002	56.351
76.003	48.795
77.003	54.195
78.003	52.095
79.003	47.395
80.003	55.694
81.003	51.095
82.003	48.895
83.003	53.695
84.003	47.295
85.059	52.980
86.004	54.704
87.004	49.495
88.004	53.295
89.004	52.795
90.004	47.795
91.004	51.695
92.004	51.295
93.003	52.848
94.003	53.295
95.003	47.095
96.004	55.494
97.004	19.698
