Time [s]	Current [nA]
0.000	45.895
1.000	55.194
2.000	50.695
3.057	48.245
4.000	50.260
5.063	43.969
6.000	50.902
7.000	45.095
8.000	49.395
9.000	48.795
10.000	48.795
11.000	48.295
12.059	45.038
13.000	49.623
14.000	50.895
15.061	46.127
16.001	46.910
17.001	48.595
18.067	50.839
19.001	47.747
20.001	46.495
21.067	50.652
22.001	47.212
23.067	49.807
24.061	47.480
25.000	50.048
26.067	52.059
27.001	49.031
28.001	50.895
29.001	52.195
30.001	52.195
31.001	47.795
32.001	50.895
33.055	47.718
34.001	53.060
35.001	51.995
36.068	50.464
37.002	50.530
38.002	51.995
39.002	51.495
40.002	51.495
41.001	49.645
42.001	53.895
43.001	52.995
44.001	52.795
45.001	52.195
46.002	50.095
47.002	54.595
48.002	52.995
49.002	53.995
50.002	53.695
51.002	53.295
52.002	50.595
53.002	56.294
54.002	49.495
55.002	53.895
56.003	53.695
57.060	52.502
58.095	53.811
59.002	55.232
60.002	54.195
61.057	51.275
62.060	53.434
63.060	54.994
64.002	54.029
65.002	54.295
66.003	53.495
67.003	53.595
68.003	49.995
69.003	54.495
70.066	53.522
71.003	58.265
72.003	53.595
73.003	53.395
74.003	51.695
75.003	55.994
76.014	54.549
77.003	49.742
78.003	54.495
79.003	54.695
80.003	57.094
81.003	52.095
82.003	55.294
83.003	54.595
84.003	54.495
85.003	56.994
86.004	52.195
87.004	54.994
88.004	54.595
89.004	55.394
90.004	54.695
91.004	56.794
92.004	52.095
93.066	53.102
94.003	58.906
95.003	55.394
96.118	18.939
