Time [s]	Current [nA]
0.000	30.178
0.941	51.855
2.003	53.949
2.941	55.112
3.941	53.695
4.941	53.795
5.942	54.695
7.000	52.830
7.942	54.665
8.942	54.595
10.004	51.878
10.942	57.137
11.942	53.695
12.942	50.795
13.942	55.394
14.942	53.695
15.943	50.895
16.943	47.795
17.942	48.444
18.942	44.496
19.942	47.395
20.942	47.595
21.942	46.595
22.942	45.795
24.007	45.535
24.942	47.375
25.943	46.695
27.005	43.498
27.943	50.528
28.943	45.395
29.943	47.795
30.943	45.195
31.943	48.395
32.943	47.095
33.943	46.895
34.943	49.095
36.002	46.026
36.943	46.329
37.943	47.295
38.943	48.695
39.943	49.395
40.943	50.595
41.943	47.395
43.007	52.250
44.009	50.494
44.943	48.817
46.006	49.430
47.010	52.086
47.944	48.496
48.998	48.287
50.002	50.692
51.020	50.290
51.944	51.185
52.943	51.246
53.943	51.195
54.943	50.595
55.944	50.295
57.006	49.336
57.944	50.421
59.029	51.516
60.006	46.362
61.006	51.195
62.006	51.495
63.008	53.089
63.944	51.918
64.944	51.595
65.945	51.195
66.945	51.395
67.945	48.895
68.945	53.295
70.007	50.466
71.002	52.558
72.003	52.043
72.944	55.892
73.944	49.895
74.944	38.996
75.945	13.199
76.945	22.398
77.945	32.997
79.002	41.245
80.024	46.179
80.945	54.718
81.945	53.795
83.010	55.675
84.011	53.541
84.945	54.170
86.008	53.196
87.012	55.273
87.945	51.978
88.945	53.695
89.945	54.195
90.945	50.995
91.945	55.594
92.945	54.795
93.945	53.695
94.945	52.695
95.946	55.394
96.946	51.095
98.006	51.693
98.946	57.654
100.160	36.734
