Time [s]	Current [nA]
0.000	40.596
1.000	54.095
1.999	54.549
2.999	56.194
3.999	51.595
4.999	54.595
6.000	53.795
7.000	53.095
8.000	54.994
9.000	55.394
10.059	51.836
11.000	51.961
12.000	53.895
13.000	53.495
14.000	55.994
15.000	50.395
16.001	54.095
17.001	53.695
18.001	53.595
19.001	56.194
20.059	53.586
21.000	53.130
22.000	54.295
23.000	53.695
24.000	53.695
25.000	55.394
26.001	55.394
27.067	51.590
28.062	53.763
29.001	51.326
30.055	51.892
31.001	57.711
32.062	51.267
33.066	53.779
34.001	51.760
35.001	52.995
36.002	55.394
37.001	55.850
38.001	49.895
39.001	53.695
40.067	55.248
41.001	54.063
42.001	54.395
43.001	51.095
44.001	53.595
45.001	53.395
46.068	55.342
47.002	52.993
48.002	55.594
49.002	50.095
50.002	52.995
51.002	53.195
52.002	53.795
53.002	55.294
54.001	50.646
55.001	53.895
56.002	53.095
57.002	52.895
58.002	54.695
59.002	55.294
60.002	49.695
61.002	52.495
62.062	54.617
63.002	50.740
64.002	55.194
65.002	54.795
66.003	49.395
67.003	52.595
68.063	53.957
69.057	49.492
70.062	54.621
71.003	52.173
72.068	54.924
73.002	50.958
74.063	53.906
75.002	53.349
76.003	54.395
77.003	49.295
78.003	52.795
79.003	52.795
80.057	51.039
81.003	52.426
82.003	54.395
83.068	54.549
84.003	51.118
85.003	52.895
86.004	55.394
87.004	50.395
88.004	53.495
89.003	52.848
90.003	52.695
91.003	55.094
92.003	53.795
93.003	50.095
94.056	5.508
