Time [s]	Current [nA]
0.000	16.215
1.000	50.895
2.000	53.195
3.000	48.295
4.000	52.095
4.999	50.946
6.000	50.695
7.099	52.042
8.066	48.599
9.000	50.637
10.000	50.895
11.000	51.395
12.000	51.395
13.000	48.995
14.000	53.595
15.000	51.095
16.001	51.695
17.001	51.195
18.063	48.112
19.001	52.340
20.001	52.895
21.063	49.524
22.000	55.277
23.000	47.795
24.000	53.095
25.000	53.195
26.066	48.446
27.001	51.546
28.067	52.809
29.001	49.781
30.001	53.495
31.001	49.295
32.001	52.695
33.055	49.046
34.001	54.646
35.001	53.995
36.088	48.706
37.002	53.824
38.002	52.895
39.002	52.195
40.063	48.723
41.063	54.695
42.001	51.594
43.059	48.955
44.057	51.698
45.056	51.297
46.109	50.612
47.065	55.120
48.060	48.136
49.060	52.295
50.002	50.207
51.061	53.158
52.002	51.748
53.061	50.514
54.002	50.898
55.061	52.736
56.003	53.816
57.002	46.742
58.058	51.226
59.002	56.138
60.002	48.195
61.002	51.495
62.002	51.195
63.002	52.995
64.060	49.995
65.002	49.783
66.003	52.395
67.003	51.395
68.003	51.495
69.003	53.095
70.003	49.095
71.003	51.695
72.003	51.395
73.003	51.295
74.003	53.195
75.065	50.985
76.078	50.933
77.003	50.481
78.065	48.394
79.003	55.325
80.003	48.695
81.062	50.231
82.061	52.347
83.003	54.029
84.057	48.572
85.066	53.368
86.004	50.208
87.004	53.195
88.069	49.666
89.069	51.495
90.004	42.990
91.004	15.098
92.003	19.718
93.068	33.424
94.069	41.255
95.003	43.679
96.004	50.995
97.004	53.795
98.004	50.095
99.004	53.295
100.004	15.898
