Time [s]	Current [nA]
0.000	1.771
1.000	55.494
2.101	51.130
3.000	57.280
4.000	56.794
5.001	55.594
6.001	55.194
7.000	55.750
8.000	52.295
9.000	30.097
10.000	15.398
11.000	28.597
12.000	39.596
13.000	47.195
14.000	53.195
15.001	53.095
16.066	58.586
17.066	56.294
18.001	54.005
19.001	57.794
20.001	52.395
21.001	55.594
22.001	55.794
23.001	55.594
24.065	57.231
25.001	55.609
26.001	52.495
27.001	56.094
28.001	55.494
29.001	55.394
30.001	56.794
31.011	56.727
32.001	51.308
33.001	54.895
34.001	54.994
35.002	55.194
36.002	57.494
37.002	52.595
38.002	55.794
39.002	55.594
40.002	55.594
41.002	52.795
42.001	55.250
43.001	57.294
44.063	51.690
45.002	58.630
46.002	54.495
47.002	51.795
48.002	56.994
49.002	50.395
50.002	55.094
51.002	54.994
52.002	55.494
53.002	55.194
54.002	51.395
55.003	54.695
56.003	55.194
57.003	54.795
58.003	51.795
59.003	57.094
60.002	55.050
61.002	54.295
62.002	54.895
63.002	50.295
64.002	56.694
65.058	53.833
66.062	54.676
67.003	52.386
68.003	54.795
69.003	56.994
70.003	56.394
71.003	54.495
72.003	49.795
73.003	54.395
74.003	54.295
75.003	55.994
76.004	56.694
77.003	50.445
78.003	54.095
79.003	54.495
80.003	56.294
81.003	55.894
82.003	50.595
83.003	55.194
84.003	54.795
85.003	53.995
86.004	56.294
87.004	52.495
88.004	56.394
89.004	55.194
90.004	55.194
91.004	51.995
92.087	56.689
93.004	56.047
94.004	21.098
