Time [s]	Current [nA]
0.000	55.858
1.000	56.094
2.000	58.894
3.000	54.195
4.000	58.294
5.000	56.694
6.001	56.694
7.001	58.894
8.001	51.795
9.001	59.194
10.000	56.351
11.000	56.294
12.000	56.394
13.000	53.395
14.000	58.194
15.000	56.394
16.001	56.194
17.001	55.994
18.001	57.394
19.001	51.895
20.001	57.194
21.001	56.694
22.001	55.694
23.001	56.094
24.001	57.794
25.001	52.995
26.059	53.921
27.001	58.911
28.001	55.694
29.001	55.594
30.001	53.295
31.001	58.394
32.001	56.294
33.001	56.094
34.001	56.394
35.001	53.595
36.002	58.494
37.002	56.894
38.002	56.494
39.002	55.594
40.057	53.360
41.002	56.502
42.002	58.094
43.002	57.294
44.002	55.994
45.001	56.251
46.002	58.194
47.002	52.795
48.002	58.494
49.064	53.667
50.002	60.122
51.002	55.994
52.002	53.795
53.002	58.294
54.002	57.094
55.002	56.494
56.003	56.794
57.003	58.194
58.003	52.095
59.059	55.771
60.003	59.846
61.058	53.265
62.002	59.634
63.002	53.695
64.002	58.694
65.002	57.094
66.003	55.994
67.003	56.094
68.076	53.396
69.003	56.413
70.003	57.394
71.003	56.894
72.003	55.994
73.003	56.294
74.003	58.494
75.003	53.395
76.004	57.794
77.004	56.094
78.062	53.397
79.004	60.079
80.065	55.697
81.003	56.817
82.003	57.094
83.003	56.194
84.003	56.094
85.003	53.395
86.004	57.694
87.004	57.194
88.004	56.494
89.004	0.500
