Time [s]	Current [nA]
0.000	52.695
1.000	62.394
2.000	53.895
3.000	58.694
3.999	59.353
4.999	60.494
6.000	59.694
7.003	57.920
8.000	53.355
9.000	57.794
10.000	57.694
11.000	59.994
12.000	60.294
13.000	53.795
14.058	60.013
15.000	61.247
16.001	55.494
17.001	59.194
18.001	53.395
19.001	57.494
20.001	61.794
21.057	54.635
22.063	60.730
23.059	53.910
24.060	57.736
25.060	57.051
26.055	56.678
27.071	58.163
28.075	57.265
29.056	53.410
30.061	57.507
31.059	56.307
32.055	55.617
33.064	58.963
34.057	52.865
35.061	56.226
36.061	55.794
37.057	55.617
38.086	54.902
39.001	57.808
40.001	52.795
41.062	57.864
42.001	53.030
43.001	55.394
44.001	57.494
45.001	56.794
46.002	50.195
47.002	55.094
48.061	55.802
49.064	55.328
50.002	53.833
51.002	55.494
52.061	51.931
53.002	52.280
54.002	59.494
55.002	52.095
56.061	53.964
57.008	58.495
58.002	50.699
59.002	53.895
60.002	53.195
61.002	55.594
62.002	50.595
63.002	53.295
64.060	54.815
65.002	51.163
66.003	55.194
67.003	54.895
68.003	53.995
69.003	49.195
70.003	52.295
71.003	52.795
72.003	55.694
73.003	56.394
74.002	50.045
75.002	54.195
76.003	53.395
77.003	54.995
78.003	56.594
79.065	46.135
80.003	26.543
81.003	36.896
82.003	47.495
83.003	55.294
84.003	56.794
85.066	52.631
86.004	51.274
87.004	54.395
88.004	54.295
89.004	56.194
90.004	56.594
91.053	6.100
