Time [s]	Current [nA]
0.000	1.034
1.000	52.595
2.000	56.394
3.000	51.895
3.999	54.749
4.999	54.195
6.000	54.095
7.000	56.594
8.000	56.194
9.000	49.995
10.000	53.695
11.000	54.395
12.000	54.595
13.000	57.694
14.058	54.153
15.058	55.250
16.001	52.805
17.001	59.794
18.001	52.495
19.001	57.494
20.001	51.395
21.000	56.251
22.000	55.694
23.000	56.194
24.062	60.258
25.000	56.498
26.001	52.095
27.001	55.894
28.001	61.094
29.001	52.995
30.001	57.894
31.009	56.244
32.001	51.910
33.001	55.794
34.001	56.294
35.002	58.494
36.002	53.595
37.002	56.494
38.002	55.794
39.001	55.350
40.067	59.469
41.001	56.097
42.001	57.694
43.001	51.595
44.001	56.094
45.001	56.294
46.002	58.494
47.002	57.994
48.002	51.395
49.002	55.894
50.002	55.794
51.002	57.094
52.068	53.466
53.002	57.382
54.002	56.994
55.002	55.794
56.002	55.150
57.002	56.894
58.002	58.094
59.002	50.895
60.002	55.094
61.002	54.895
62.002	55.894
63.002	58.994
64.002	57.594
65.002	51.395
66.003	48.995
67.003	26.997
68.003	36.896
69.003	49.395
70.003	48.295
71.003	55.294
72.003	54.795
73.003	54.295
74.002	56.851
75.002	57.194
76.003	50.395
77.003	54.595
78.003	54.895
79.003	57.394
80.058	53.644
81.003	52.905
82.003	55.794
83.003	54.095
84.003	54.295
85.003	56.394
86.004	56.994
87.004	50.495
88.066	56.774
89.058	54.833
90.004	53.483
91.003	55.350
92.141	28.029
