Time [s]	Current [nA]
0.000	34.389
1.000	55.894
2.000	54.695
3.000	49.295
4.000	54.595
4.999	55.050
6.056	52.836
7.000	54.867
8.000	54.295
9.062	54.797
10.000	51.274
11.000	56.594
12.000	51.195
13.000	53.995
14.057	51.272
15.000	56.940
16.001	53.595
17.001	51.495
18.001	54.695
19.001	53.395
20.001	53.495
21.059	50.657
22.000	53.023
23.056	51.983
24.000	56.986
25.000	53.795
26.064	49.195
27.001	55.704
28.063	53.008
29.060	49.243
30.013	55.608
31.001	48.882
32.001	52.795
33.001	55.294
34.001	55.494
35.001	49.595
36.002	53.795
37.002	52.795
38.067	54.736
39.002	53.471
40.001	50.245
41.001	54.895
42.001	54.095
43.001	53.995
44.053	53.702
45.001	57.484
46.002	50.795
47.002	53.495
48.002	52.595
49.002	52.995
50.002	56.394
51.002	51.195
52.002	53.195
53.002	54.095
54.002	53.595
55.076	51.439
56.003	54.256
57.002	54.949
58.064	50.183
59.002	56.604
60.002	53.395
61.002	49.995
62.002	55.894
63.060	51.224
64.002	56.151
65.002	53.995
66.003	54.095
67.003	51.695
68.003	56.194
69.003	54.395
70.003	52.795
71.003	53.095
72.003	50.995
73.003	56.294
74.003	54.595
75.065	51.079
76.003	56.924
77.061	50.373
78.003	54.453
79.003	52.095
80.068	56.238
81.064	53.208
82.003	51.539
83.003	55.694
84.003	54.695
85.003	49.695
86.004	54.695
87.004	54.495
88.004	54.395
89.004	51.195
90.004	54.895
91.004	53.895
92.003	53.548
93.003	52.995
94.003	0.400
