Time [s]	Current [nA]
0.000	13.823
1.000	58.094
2.000	62.594
3.000	59.894
4.000	58.994
5.000	59.294
6.087	54.967
7.062	62.455
8.001	59.845
9.001	59.894
10.001	58.894
11.001	58.994
12.001	55.194
13.001	60.794
14.001	59.894
15.000	58.653
16.001	58.194
17.001	57.994
18.061	57.541
19.001	57.973
20.001	58.694
21.059	54.437
22.001	60.822
23.001	54.595
24.001	59.394
25.001	56.994
26.002	57.694
27.059	53.164
28.002	60.333
29.002	53.495
30.002	59.394
31.002	57.094
32.060	52.358
33.001	59.080
34.001	51.995
35.001	56.494
36.002	57.194
37.002	55.994
38.002	54.895
39.002	55.094
40.062	54.617
41.002	55.952
42.002	56.794
43.059	51.650
44.002	58.213
45.063	53.768
46.003	53.080
47.060	55.340
48.003	58.319
49.003	53.795
50.002	53.748
51.002	51.495
52.002	57.094
53.002	55.294
54.002	54.295
55.002	53.895
56.003	54.795
57.003	50.395
58.003	56.294
59.003	53.895
60.003	53.895
61.003	54.095
62.003	50.895
63.065	57.998
64.003	52.767
65.003	54.795
66.065	50.985
67.004	56.544
68.003	51.146
69.061	52.736
70.003	58.381
71.003	54.495
72.003	54.495
73.003	50.795
74.003	56.694
75.003	54.195
76.004	55.094
77.004	54.395
78.004	55.694
79.014	55.836
80.004	52.419
81.004	55.095
82.062	51.224
83.059	54.558
84.057	56.708
85.075	57.123
86.004	52.524
87.004	54.395
88.004	54.395
89.004	55.194
90.004	23.198
