Time [s]	Current [nA]
0.000	40.796
1.000	55.794
2.000	53.495
3.055	54.592
4.000	53.434
5.001	56.194
6.001	55.594
7.001	55.394
8.001	57.994
9.001	51.895
10.001	55.194
11.001	54.095
12.001	53.495
13.001	56.194
14.061	53.957
15.001	53.136
16.001	55.494
17.001	54.295
18.001	54.395
19.001	55.794
20.001	55.994
21.001	50.695
22.001	55.194
23.001	53.795
24.001	56.094
25.002	49.495
26.002	56.294
27.002	54.095
28.002	54.495
29.002	54.495
30.002	56.294
31.002	57.494
32.066	52.626
33.001	52.508
34.061	56.692
35.002	55.420
36.002	55.094
37.002	51.495
38.002	55.394
39.002	54.295
40.002	55.994
41.002	57.494
42.002	56.694
43.002	51.395
44.002	55.394
45.063	57.447
46.003	52.973
47.003	57.394
48.003	52.495
49.002	55.650
50.002	54.795
51.002	54.695
52.002	56.994
53.002	52.595
54.002	55.294
55.003	54.795
56.003	54.995
57.102	55.136
58.061	54.843
59.063	57.779
60.003	54.782
61.003	55.494
62.003	56.294
63.003	56.794
64.003	52.695
65.003	56.194
66.004	56.394
67.003	56.451
68.003	55.994
69.003	56.994
70.003	57.994
71.003	51.995
72.003	55.794
73.003	55.694
74.003	58.294
75.003	57.794
76.004	52.295
77.004	56.794
78.004	55.994
79.004	55.594
80.004	58.094
81.004	52.695
82.004	57.294
83.069	57.928
84.003	54.277
85.003	57.594
86.004	56.194
87.004	52.995
88.004	55.894
89.004	55.594
90.004	50.895
