Time [s]	Current [nA]
0.000	22.146
1.000	51.595
2.000	55.794
3.081	50.504
4.000	59.298
5.001	54.495
6.058	51.556
7.001	54.183
8.059	53.114
9.001	52.649
10.061	54.995
11.000	51.646
12.000	54.595
13.000	49.795
14.000	54.895
15.001	54.495
16.001	53.895
17.001	54.295
18.001	55.594
19.062	53.906
20.001	51.965
21.001	53.295
22.001	53.395
23.001	51.695
24.001	53.195
25.058	54.067
26.002	57.409
27.002	53.795
28.062	50.561
29.001	53.882
30.001	55.194
31.001	54.994
32.058	56.191
33.001	63.514
34.008	61.464
35.076	57.351
36.002	61.009
37.002	59.994
38.002	55.094
39.002	59.494
40.002	62.094
41.061	58.540
42.002	57.911
43.002	59.494
44.002	59.294
45.086	60.751
46.002	60.802
47.002	56.294
48.002	59.894
49.002	58.994
50.002	58.194
51.060	57.556
52.065	60.193
53.002	57.305
54.002	59.294
55.003	58.094
56.068	59.806
57.003	57.427
58.003	54.695
59.003	58.294
60.003	57.094
61.003	57.394
62.003	59.694
63.062	55.896
64.002	55.101
65.002	57.794
66.003	56.994
67.065	59.222
68.061	53.107
69.003	56.470
70.060	53.732
71.003	59.273
72.003	42.396
73.064	26.388
74.003	37.057
75.003	51.095
76.004	50.195
77.004	55.094
78.004	55.394
79.004	56.794
80.063	53.536
81.068	56.114
82.003	52.829
83.003	54.895
84.088	58.243
85.066	50.251
86.004	54.792
87.004	55.394
88.070	56.467
89.069	54.549
90.004	55.502
91.057	10.350
