Time [s]	Current [nA]
0.000	15.823
0.999	58.853
1.999	53.795
2.999	57.094
3.999	55.794
5.053	52.796
6.096	60.684
7.000	56.963
8.000	53.095
9.055	53.360
10.000	58.830
11.000	55.994
12.000	52.195
13.000	58.794
14.000	55.494
15.000	56.494
16.001	55.794
17.001	55.994
18.001	53.295
19.000	57.952
20.000	56.294
21.000	55.994
22.000	50.795
23.062	58.939
24.000	54.579
25.000	55.794
26.001	51.995
27.001	56.494
28.001	55.494
29.001	58.194
30.001	53.095
31.001	55.494
32.001	54.295
33.001	55.694
34.001	52.195
35.001	55.994
36.060	54.909
37.001	54.830
38.001	55.694
39.066	56.896
40.001	55.289
41.001	52.695
42.001	55.994
43.001	59.994
44.001	50.595
45.001	55.894
46.002	56.894
47.002	56.494
48.063	53.623
49.002	53.562
50.002	56.194
51.002	57.894
52.002	53.295
53.002	56.894
54.001	55.750
55.001	56.494
56.002	55.994
57.002	58.594
58.067	54.642
59.068	56.238
60.002	53.742
61.002	55.894
62.002	58.294
63.002	53.595
64.002	57.094
65.065	54.138
66.003	59.163
67.064	52.021
68.003	56.118
69.003	56.294
70.003	55.694
71.002	54.949
72.002	54.395
73.002	52.995
74.002	57.694
75.002	55.194
76.065	53.573
77.003	59.696
78.003	55.594
79.003	53.895
80.003	57.294
81.003	51.395
82.057	57.584
83.003	53.800
84.003	57.894
85.003	56.694
86.063	54.102
87.004	54.830
88.004	55.994
89.003	56.951
90.129	39.161
