Time [s]	Current [nA]
0.000	6.733
1.000	54.595
2.000	50.095
3.063	57.567
4.000	52.609
5.059	50.090
6.001	56.152
7.085	49.165
8.065	57.545
9.000	53.257
10.000	53.595
11.000	52.995
12.063	49.854
13.000	53.463
14.000	53.695
15.060	49.570
16.001	57.380
17.001	54.095
18.064	51.359
19.001	54.530
20.001	56.694
21.001	54.595
22.001	53.695
23.001	54.095
24.001	51.195
25.002	55.294
26.001	55.750
27.001	49.795
28.001	54.695
29.001	55.394
30.058	53.826
31.001	57.258
32.001	61.694
33.001	60.894
34.066	62.529
35.059	57.252
36.002	64.469
37.002	59.094
38.002	61.594
39.002	60.694
40.002	60.694
41.002	57.294
42.002	63.394
43.001	62.256
44.001	60.594
45.001	60.594
46.002	60.794
47.002	57.394
48.002	62.894
49.002	60.694
50.002	59.594
51.002	59.794
52.002	57.094
53.002	61.994
54.002	59.794
55.062	56.274
56.003	57.593
57.003	59.394
58.003	61.694
59.003	56.394
60.003	59.794
61.064	60.503
62.002	56.817
63.002	61.294
64.007	59.994
65.002	54.366
66.003	58.994
67.003	58.294
68.058	55.729
69.062	60.054
70.003	57.593
71.003	58.794
72.003	57.394
73.003	57.494
74.003	53.795
75.003	57.694
76.004	59.794
77.066	54.420
78.066	56.494
79.003	60.826
80.003	53.895
81.003	60.294
82.003	57.094
83.003	55.894
84.003	56.994
85.006	57.422
86.004	53.355
87.004	58.094
88.037	35.427
