Time [s]	Current [nA]
0.000	6.573
0.944	61.011
1.943	50.345
2.943	53.595
4.004	55.131
4.943	52.178
5.944	56.294
6.944	50.895
7.944	54.995
9.009	55.957
9.944	52.294
10.944	56.894
11.943	50.946
13.025	54.431
13.943	55.114
14.943	53.995
15.944	54.595
16.944	57.094
17.944	51.695
18.944	55.594
19.944	54.895
20.944	54.195
21.944	56.194
22.944	50.595
23.946	60.174
24.944	51.297
26.011	56.842
26.945	53.849
27.946	57.337
28.944	52.400
30.005	53.529
31.006	55.339
31.944	59.056
32.944	52.095
33.944	54.795
34.944	57.294
36.009	53.378
36.945	53.200
37.945	54.295
38.945	56.794
39.945	52.595
41.010	57.741
41.945	53.578
42.945	54.395
44.015	51.957
44.945	59.886
45.945	52.848
46.945	55.494
47.945	53.995
48.945	55.094
49.945	56.494
50.945	51.695
52.002	56.475
53.010	55.748
54.010	55.094
54.945	52.615
56.007	54.471
56.946	54.947
57.946	55.494
59.008	57.056
60.007	55.250
61.002	53.361
62.001	58.553
63.020	54.754
63.945	55.562
64.945	54.895
66.011	57.365
67.007	52.806
68.003	56.721
68.946	53.971
69.946	54.895
70.946	55.294
72.008	54.044
73.011	57.223
74.029	53.138
74.946	54.956
76.009	56.774
76.947	51.807
77.947	57.194
78.947	52.195
80.012	57.459
81.005	51.052
82.008	54.631
82.946	54.472
84.048	55.167
84.946	55.896
85.947	55.494
86.950	55.029
87.947	50.246
88.947	57.194
90.006	53.158
90.947	53.555
91.947	15.898
