Time [s]	Current [nA]
0.000	44.963
1.000	55.694
2.000	54.795
3.000	52.295
4.063	53.334
5.001	58.052
6.001	50.995
7.066	56.802
8.001	53.150
9.060	54.574
10.064	57.863
11.001	53.463
12.001	54.195
13.000	54.049
14.055	53.644
15.001	52.270
16.001	56.394
17.001	53.895
18.001	54.395
19.001	54.395
20.001	51.095
21.001	55.494
22.001	54.195
23.001	53.895
24.001	54.095
25.078	49.809
26.067	55.909
27.002	53.257
28.002	53.695
29.061	50.325
30.002	57.168
31.001	52.247
32.001	55.994
33.001	49.695
34.001	53.895
35.060	54.531
36.002	50.844
37.002	56.394
38.002	50.295
39.002	53.695
40.002	53.895
41.002	53.995
42.002	56.094
43.002	56.294
44.003	54.640
45.003	50.245
46.003	53.195
47.003	53.395
48.002	55.350
49.002	55.794
50.002	49.495
51.002	53.995
52.061	55.519
53.002	54.405
54.002	55.894
55.002	54.295
56.003	50.595
57.003	54.095
58.069	56.655
59.003	55.027
60.061	53.019
61.069	55.451
62.003	52.778
63.003	54.595
64.003	55.594
65.106	50.267
66.058	53.146
67.003	58.407
68.003	54.095
69.003	45.995
70.003	26.197
71.003	36.096
72.003	48.095
73.003	52.995
74.003	59.594
75.100	51.820
76.004	53.866
77.004	56.094
78.004	50.395
79.065	56.356
80.004	51.965
81.061	57.043
82.004	47.291
83.003	53.548
84.003	58.494
85.003	54.395
86.004	49.395
87.004	57.194
88.004	55.994
89.004	49.595
90.004	53.795
91.004	54.095
92.004	54.995
93.004	56.094
94.004	0.400
