Time [s]	Current [nA]
0.000	50.096
0.941	55.361
1.941	56.094
2.941	50.695
4.001	55.655
4.941	52.867
6.004	58.751
7.001	52.352
7.942	59.611
9.007	52.765
9.942	52.080
11.001	55.141
12.005	56.170
13.002	51.650
13.942	54.888
15.001	57.934
15.997	55.215
16.942	54.492
17.942	55.994
18.942	56.794
19.998	52.267
21.000	53.787
21.942	57.425
23.005	54.745
23.942	54.850
24.995	52.986
25.943	58.811
26.943	50.695
27.943	55.794
28.943	56.694
29.943	52.295
30.943	54.895
32.003	56.221
32.943	51.910
33.942	55.650
34.942	57.394
35.943	51.495
36.943	55.094
37.943	59.994
38.943	50.695
39.943	57.794
40.943	57.394
41.943	50.595
42.943	55.094
43.943	60.694
45.004	55.131
46.000	52.558
47.019	55.245
47.944	55.238
48.944	54.895
50.008	57.043
50.944	54.589
51.943	52.347
52.943	55.394
54.000	56.759
54.996	56.019
55.944	55.010
56.944	57.994
58.019	51.902
59.010	58.924
60.005	55.673
60.944	51.752
61.944	56.194
62.944	51.095
63.944	55.194
64.944	54.195
65.945	54.095
66.945	56.194
67.945	49.695
68.944	56.451
70.001	52.218
70.944	57.470
71.944	53.595
72.944	56.194
73.944	50.795
74.944	54.895
76.007	55.550
76.945	52.340
77.945	56.394
78.945	54.795
79.945	51.395
80.945	54.095
81.945	54.095
82.945	54.195
83.945	59.494
84.945	56.694
85.946	61.694
86.945	59.554
87.945	59.494
88.945	60.094
90.081	45.858
