Time [s]	Current [nA]
0.000	22.730
1.000	56.194
2.000	56.894
3.055	54.307
4.061	55.959
5.001	52.923
6.001	54.595
7.001	55.194
8.058	52.880
9.001	54.395
10.001	54.395
11.000	53.949
12.000	54.195
13.000	56.394
14.004	56.369
15.001	49.794
16.001	54.495
17.001	54.295
18.001	54.395
19.060	53.441
20.001	55.042
21.001	55.194
22.001	54.195
23.001	54.395
24.001	55.994
25.096	51.000
26.002	55.624
27.002	54.795
28.063	55.602
29.001	52.234
30.001	56.594
31.001	56.194
32.065	52.532
33.001	52.238
34.001	54.695
35.002	55.994
36.094	50.270
37.062	60.118
38.002	54.250
39.002	55.794
40.002	56.994
41.056	55.213
42.002	55.808
43.062	58.956
44.002	53.824
45.003	56.194
46.077	59.398
47.002	54.805
48.002	51.795
49.068	57.311
50.063	55.572
51.063	54.695
52.002	55.266
53.059	54.678
54.002	54.183
55.003	54.695
56.003	56.094
57.089	55.335
58.003	57.434
59.064	54.943
60.003	54.308
61.003	55.394
62.003	55.694
63.003	57.094
64.002	52.247
65.003	55.494
66.003	56.794
67.003	55.294
68.003	55.094
69.061	54.909
70.003	56.576
71.069	58.812
72.003	53.635
73.003	55.494
74.003	58.094
75.005	57.080
76.004	51.297
77.065	57.204
78.004	51.858
79.004	54.695
80.061	54.678
81.059	58.110
82.003	55.079
83.003	55.994
84.064	58.053
85.003	54.947
86.004	55.494
87.004	52.195
88.004	54.994
89.004	54.395
90.004	55.694
91.004	26.997
