Time [s]	Current [nA]
0.000	0.330
1.058	44.329
2.000	47.983
3.000	45.400
4.000	42.500
5.000	47.300
6.000	42.200
7.000	45.500
8.000	45.300
9.000	46.300
10.000	46.800
11.000	43.200
11.999	44.945
12.999	45.000
13.999	45.300
14.999	47.300
15.999	47.100
17.007	45.635
17.999	41.935
18.999	48.400
19.999	40.600
20.999	46.800
21.999	46.000
22.999	40.600
23.999	44.000
24.999	44.000
25.999	45.600
26.999	45.900
27.999	39.700
28.999	45.300
29.998	45.145
30.998	45.400
32.056	44.329
32.998	44.692
33.998	45.600
35.056	45.936
35.998	42.357
36.998	46.500
37.998	41.800
39.068	47.383
39.998	43.548
40.998	44.400
42.053	42.844
42.998	49.418
43.998	43.000
44.998	45.900
45.998	45.100
46.997	44.745
47.997	47.100
48.997	41.400
49.997	46.800
50.997	45.400
51.997	43.900
52.997	43.900
54.056	43.626
54.997	45.377
55.997	44.400
56.997	43.100
57.997	43.800
58.997	46.000
59.997	41.000
60.997	45.700
61.997	44.200
62.997	44.500
63.997	44.400
64.996	45.245
65.996	41.400
66.996	45.400
67.996	44.800
68.996	44.300
70.084	46.415
71.051	42.606
71.996	44.127
73.053	42.479
73.996	46.766
74.996	44.600
76.055	43.909
76.996	44.740
78.063	46.204
79.047	41.362
80.054	44.191
80.996	47.983
81.995	46.446
82.995	42.400
83.995	45.500
84.995	43.400
85.995	43.700
86.995	45.700
87.995	42.100
88.995	45.300
89.995	44.500
90.995	44.700
91.995	44.600
92.995	45.500
93.995	41.100
95.057	45.951
95.995	42.111
96.995	43.300
97.995	45.400
98.995	40.000
99.994	44.545
101.050	41.477
101.994	45.551
102.994	43.600
104.053	43.248
105.056	45.763
105.994	42.857
106.994	44.000
107.994	43.900
108.994	43.300
110.078	40.129
110.994	46.070
112.057	42.051
112.994	21.878
