Time [s]	Current [nA]
0.000	4.980
1.000	54.895
2.062	55.268
3.000	53.406
4.000	55.694
5.075	50.740
6.063	55.055
7.061	58.010
8.061	58.994
9.001	59.569
10.001	56.294
11.001	60.294
12.001	58.894
13.067	60.782
14.001	59.523
15.013	59.737
16.001	55.359
17.001	58.794
18.001	58.594
19.001	58.494
20.001	60.894
21.001	60.594
22.062	56.074
23.001	55.692
24.001	58.094
25.001	59.994
26.002	58.494
27.002	55.494
28.002	57.894
29.002	57.794
30.002	57.794
31.002	59.494
32.001	59.954
33.001	53.495
34.001	57.494
35.001	57.494
36.002	57.394
37.002	59.094
38.002	53.595
39.002	56.994
40.002	56.094
41.002	55.794
42.002	58.294
43.002	58.994
44.002	51.695
45.002	55.194
46.003	55.194
47.003	55.294
48.003	58.094
49.003	52.495
50.002	56.050
51.002	55.294
52.002	55.494
53.002	57.794
54.002	52.595
55.002	55.694
56.003	56.294
57.067	56.949
58.003	52.452
59.003	56.294
60.003	52.095
61.060	52.313
62.003	56.940
63.003	54.695
64.003	51.295
65.003	54.895
66.061	52.123
67.003	56.470
68.003	53.095
69.003	53.595
70.003	51.295
71.060	52.502
72.003	57.258
73.003	52.795
74.003	52.395
75.003	48.695
76.004	53.695
77.062	51.791
78.004	56.151
79.066	49.713
80.004	56.604
81.004	54.795
82.004	50.295
83.066	51.596
84.004	56.071
85.062	49.853
86.082	52.642
87.004	54.333
88.004	55.294
89.066	50.277
90.004	52.127
