Time [s]	Current [nA]
0.000	32.798
0.942	32.059
1.942	20.000
2.942	28.500
3.997	33.649
4.942	42.116
5.942	39.600
7.014	45.522
7.942	40.841
8.942	41.900
9.942	40.700
10.941	46.647
11.941	46.500
12.941	51.400
13.941	50.100
14.941	49.200
15.941	49.200
16.941	45.900
17.941	50.400
18.941	51.400
19.941	49.600
20.941	48.800
21.941	48.700
22.941	50.100
23.941	46.600
24.941	49.600
25.997	45.360
26.941	51.483
27.941	49.400
28.940	45.546
30.004	51.504
30.940	47.115
31.940	48.800
32.995	45.403
33.940	52.381
34.940	45.100
35.940	48.500
36.940	46.800
37.940	47.300
38.940	47.200
39.940	45.200
40.997	46.074
41.940	50.583
42.940	47.100
43.940	47.000
44.940	48.600
45.939	44.845
46.939	47.700
48.002	44.591
48.939	49.626
49.939	46.000
50.999	45.094
51.939	46.064
52.939	45.600
53.996	42.668
54.939	48.250
55.939	43.200
57.022	48.846
57.939	44.602
58.939	45.400
59.996	42.195
60.939	47.296
61.939	43.100
63.001	48.023
63.938	43.543
64.938	44.500
65.938	44.400
66.938	41.400
68.031	44.739
68.938	45.976
69.938	43.200
70.994	40.436
71.938	46.080
72.938	41.600
73.938	45.100
74.938	45.100
75.938	43.500
76.938	43.000
77.938	43.900
78.938	40.200
79.938	44.100
80.937	42.843
81.937	42.600
82.937	42.000
83.937	44.200
84.937	40.600
85.937	42.700
86.937	42.100
87.937	42.700
88.937	42.300
89.937	40.200
90.937	44.500
91.937	43.200
92.937	42.600
93.937	41.900
94.937	42.800
95.937	39.300
96.937	42.300
97.998	40.057
98.994	41.466
99.992	42.285
100.936	42.161
101.936	43.400
102.936	42.000
103.936	41.200
104.991	39.621
105.995	43.327
106.936	41.977
107.936	44.300
108.936	42.800
109.936	42.200
110.936	42.400
111.936	39.100
112.936	4.200
