Time [s]	Current [nA]
0.000	12.812
1.057	51.650
2.000	56.516
3.078	49.253
4.000	54.984
5.056	52.791
6.001	51.635
7.001	52.295
8.001	52.595
9.001	54.995
10.000	53.448
11.000	47.295
12.000	53.895
13.000	52.595
14.000	52.595
15.000	53.895
16.001	49.395
17.001	53.095
18.058	49.191
19.001	55.668
20.001	49.195
21.001	53.195
22.001	54.195
23.001	49.095
24.001	52.295
25.001	51.795
26.002	53.795
27.002	53.995
28.061	49.853
29.001	50.208
30.001	51.795
31.001	52.595
32.001	53.995
33.001	50.295
34.001	52.095
35.001	51.795
36.059	49.569
37.002	56.516
38.002	48.495
39.002	52.295
40.002	52.495
41.061	48.720
42.002	55.361
43.002	49.295
44.002	53.695
45.059	49.332
46.002	55.774
47.002	51.995
48.002	49.595
49.002	54.495
50.002	52.295
51.002	52.995
52.002	51.795
53.002	51.595
54.002	48.895
55.002	53.895
56.062	49.098
57.003	55.892
58.003	47.695
59.003	54.095
60.003	54.195
61.062	49.948
62.003	50.898
63.002	52.147
64.002	52.195
65.002	54.895
66.003	49.595
67.003	52.395
68.003	51.495
69.003	51.695
70.003	53.095
71.003	47.295
72.003	53.795
73.003	52.395
74.003	51.095
75.003	51.395
76.004	49.395
77.004	54.295
78.063	49.853
79.004	55.467
80.003	51.747
81.003	47.295
82.003	52.195
83.003	53.995
84.003	48.895
85.003	51.495
86.004	51.295
87.004	53.895
88.004	49.095
89.069	54.173
90.004	49.728
91.059	48.431
92.004	54.598
93.004	49.195
94.004	52.695
95.004	52.095
96.005	51.195
97.005	10.599
