Time [s]	Current [nA]
0.000	6.061
1.005	52.443
2.000	47.844
3.059	53.546
3.999	51.282
5.082	47.422
6.058	55.538
6.998	49.473
7.998	52.105
9.066	52.346
9.998	51.507
10.998	47.505
11.998	44.904
12.998	22.502
14.064	32.461
14.997	40.047
15.997	49.205
16.997	47.005
17.997	52.605
18.997	51.505
19.996	51.356
20.996	48.505
21.996	52.105
22.996	56.006
23.996	55.806
24.996	56.406
25.995	56.906
27.061	56.197
27.995	57.929
28.995	57.306
29.995	57.406
31.053	54.259
32.048	54.377
32.995	62.836
33.995	52.105
34.995	58.406
35.994	57.306
36.994	57.106
37.993	59.065
38.993	54.305
39.993	57.906
41.048	53.939
41.993	60.218
42.993	58.606
43.993	53.105
44.993	58.506
46.053	53.446
47.054	55.648
47.992	59.382
48.992	53.200
49.992	58.000
50.992	56.400
51.992	56.300
52.992	56.700
53.992	53.500
54.991	56.657
55.991	52.100
56.991	55.500
58.056	56.714
58.991	52.620
59.991	56.800
60.991	51.800
61.991	55.200
62.991	54.500
63.991	54.700
64.991	56.200
65.991	51.500
66.991	57.300
67.991	54.700
68.991	54.100
69.991	53.700
70.991	50.800
71.991	55.100
72.990	53.754
73.990	53.700
74.990	53.200
76.061	49.580
76.990	54.898
77.990	54.500
78.990	53.400
80.049	49.858
80.990	56.004
81.990	49.900
82.990	55.300
84.072	48.891
84.990	53.050
85.990	51.800
86.990	52.100
87.990	54.700
89.052	52.731
89.989	51.227
90.989	52.100
91.989	51.900
92.989	48.400
93.989	51.400
95.042	7.882
