Time [s]	Current [nA]
0.000	16.131
1.000	51.505
2.000	51.205
3.010	53.174
4.061	46.817
5.003	54.937
5.999	52.415
7.061	48.498
7.999	54.163
9.067	49.724
10.000	52.417
10.998	50.907
11.998	49.205
13.001	49.556
14.061	50.571
14.997	49.418
16.056	49.013
16.997	54.416
17.997	51.405
18.997	50.705
20.001	52.695
21.061	51.609
21.997	50.646
22.997	52.105
24.056	47.975
25.006	55.421
25.996	48.187
26.996	53.805
27.996	52.305
29.060	48.501
30.060	51.605
30.996	51.821
31.997	53.352
32.995	47.800
33.995	51.305
34.995	52.305
36.088	52.382
36.994	53.427
38.058	49.253
38.994	49.791
39.998	49.607
41.002	54.488
41.996	48.194
42.994	52.610
43.999	46.771
45.055	52.702
45.992	48.778
46.992	50.505
48.047	50.242
48.996	55.643
49.992	46.792
50.992	50.305
51.992	49.505
52.993	51.753
53.995	51.901
54.998	49.607
55.991	46.631
56.991	50.205
57.994	49.257
58.991	51.259
59.995	47.017
60.991	50.306
61.991	48.905
62.991	50.105
63.994	52.248
64.993	52.405
65.996	52.149
66.989	47.437
67.989	51.105
68.989	51.905
70.051	50.099
70.989	51.818
72.055	53.007
72.989	49.577
73.992	50.553
74.992	51.354
75.991	50.956
76.989	48.502
77.988	51.156
79.047	52.035
79.990	48.361
80.991	52.353
81.994	52.548
82.987	46.631
84.049	51.606
85.048	50.605
85.990	47.988
86.986	53.720
87.988	47.310
88.986	51.809
90.047	52.409
90.986	48.993
91.987	53.352
92.989	52.500
93.992	46.066
95.057	53.758
96.051	50.307
96.985	48.613
97.987	52.301
99.038	14.369
