Time [s]	Current [nA]
0.000	12.722
1.000	54.195
2.000	54.395
3.000	48.195
4.000	52.195
5.001	55.594
6.054	46.909
7.001	56.277
8.001	46.695
9.058	52.029
10.058	51.595
11.079	53.668
12.001	51.079
13.059	50.751
14.060	52.942
15.059	51.598
16.001	55.090
17.001	49.095
18.001	53.595
19.001	47.095
20.060	52.214
21.001	54.936
22.001	47.095
23.057	51.794
24.001	56.986
25.062	49.429
26.002	50.208
27.002	55.694
28.002	49.295
29.002	53.495
30.073	48.548
31.002	51.233
32.002	51.795
33.001	51.546
34.001	53.895
35.002	54.395
36.002	47.995
37.002	51.295
38.002	56.494
39.064	52.725
40.002	51.381
41.002	52.095
42.002	47.695
43.002	51.795
44.002	51.495
45.003	53.395
46.003	54.395
47.003	48.795
48.003	51.995
49.063	53.202
50.002	53.243
51.002	53.295
52.002	53.595
53.002	48.495
54.002	52.095
55.003	56.694
56.003	49.795
57.003	54.495
58.003	48.195
59.003	52.395
60.003	52.095
61.003	52.495
62.073	54.387
63.003	51.500
64.003	47.595
65.003	56.394
66.004	47.695
67.063	51.270
68.003	53.399
69.063	53.485
70.003	50.314
71.062	52.969
72.003	49.942
73.003	53.195
74.003	53.795
75.003	47.995
76.063	53.536
77.064	53.541
78.004	51.803
79.004	53.595
80.004	47.795
81.004	52.695
82.065	52.775
83.004	50.261
84.004	54.695
85.003	55.250
86.004	48.595
87.004	57.194
88.004	52.895
89.004	50.495
90.004	54.795
91.004	47.595
92.065	53.906
93.064	51.046
94.063	52.247
95.004	51.323
96.005	53.695
97.005	0.400
