Time [s]	Current [nA]
0.000	5.655
0.937	52.721
1.996	50.614
2.995	51.251
3.937	48.726
4.936	50.050
5.936	51.000
6.936	50.400
7.936	46.600
8.936	50.200
9.936	49.400
10.936	49.500
11.936	51.600
12.936	51.400
13.936	45.300
14.936	48.700
15.936	49.500
16.936	50.000
17.936	49.200
18.936	47.000
19.997	52.780
20.936	48.456
21.936	50.900
22.935	52.553
23.935	52.800
24.935	48.300
25.935	50.100
26.935	50.300
27.935	51.900
28.990	49.384
29.935	54.921
30.935	46.100
31.935	54.300
32.990	47.014
33.935	50.688
34.994	49.386
35.935	49.522
36.993	52.552
37.935	54.246
38.935	50.400
39.934	48.248
40.993	49.669
41.934	49.947
42.934	50.200
43.934	50.100
44.934	52.200
45.934	51.500
46.934	46.100
47.934	50.600
48.934	49.600
49.934	50.300
50.934	52.500
51.994	50.189
53.001	51.341
53.991	51.515
54.934	48.250
55.934	51.100
56.934	51.100
57.933	45.045
58.933	49.100
59.933	48.700
60.933	49.200
61.933	50.900
62.933	52.400
63.933	46.600
64.933	49.600
65.933	49.700
66.933	51.300
68.010	47.261
68.933	55.905
69.933	46.600
70.933	50.000
71.992	50.897
72.933	50.903
73.933	52.400
74.990	48.439
75.932	47.134
76.932	53.900
77.932	45.800
78.932	51.100
79.932	51.900
80.932	46.400
81.932	49.500
82.984	52.186
83.932	50.633
84.932	51.900
85.932	45.500
86.932	49.800
87.932	54.000
88.932	45.700
89.932	51.200
90.932	50.400
91.989	48.061
92.931	47.134
93.931	53.200
94.931	46.400
95.931	51.300
96.934	50.548
97.996	48.493
98.931	48.235
99.931	49.600
100.931	5.000
