Time [s]	Current [nA]
0.000	20.148
0.943	45.175
1.943	43.600
3.033	38.807
3.996	41.537
4.942	44.926
5.942	41.400
6.942	41.500
7.942	42.800
8.942	39.600
9.942	42.300
11.000	39.225
11.942	43.737
13.035	38.152
13.942	46.748
14.942	40.000
15.942	42.700
16.998	39.299
17.942	43.750
18.942	42.700
19.942	39.000
20.942	41.700
21.999	38.316
22.941	42.994
23.941	40.700
24.941	42.900
25.941	39.600
26.941	41.200
27.941	41.000
28.941	40.800
29.941	43.300
30.941	38.800
31.941	41.400
32.999	39.225
33.941	43.418
34.941	40.700
35.941	42.500
36.946	38.905
37.941	42.010
38.941	40.400
39.940	41.141
40.998	40.076
42.001	43.270
42.940	39.723
43.991	39.581
45.002	44.807
45.940	39.979
46.940	39.700
47.940	42.200
48.940	41.300
49.940	41.500
50.940	41.800
51.940	43.100
52.940	38.500
53.940	42.800
55.000	38.962
55.940	44.255
56.939	41.642
57.998	39.849
58.939	41.658
59.939	42.100
60.939	40.800
61.939	41.200
62.939	42.800
64.032	38.243
64.994	41.788
65.939	44.233
66.994	39.336
67.939	43.280
69.004	39.812
69.939	41.818
70.997	39.036
71.939	42.357
72.939	39.600
73.939	40.100
75.004	20.939
75.995	20.081
76.995	29.300
77.938	37.752
78.938	38.500
79.938	37.400
80.938	41.900
81.938	41.100
82.938	42.000
83.999	38.549
84.938	42.918
85.938	39.000
86.938	43.400
87.938	37.700
88.938	40.700
89.938	44.300
91.001	40.452
91.937	40.491
92.937	41.100
93.937	37.500
94.937	41.000
95.937	40.900
96.937	42.900
97.937	42.400
98.937	37.500
99.998	41.847
100.937	39.617
101.937	41.700
102.937	40.400
103.937	38.300
104.996	42.021
105.993	40.822
106.996	41.077
107.937	40.914
108.937	42.200
109.993	38.919
110.936	39.233
111.936	40.496
112.936	40.596
113.999	43.458
114.937	41.511
115.937	37.596
116.937	40.496
117.937	40.896
118.991	39.465
119.937	44.816
120.937	37.896
121.995	41.206
123.029	32.782
