Time [s]	Current [nA]
0.000	15.820
0.997	53.059
2.037	51.346
2.938	55.383
3.998	51.415
5.003	51.940
6.004	50.949
7.003	51.051
8.000	48.345
8.998	53.507
9.938	48.936
11.004	52.533
12.004	49.800
12.938	48.073
14.000	48.682
14.992	51.311
15.996	49.402
16.937	48.247
17.937	49.800
18.937	51.800
19.995	48.771
20.945	52.316
21.937	46.169
22.937	48.800
23.937	48.900
24.937	50.800
25.937	46.700
26.937	49.200
27.937	48.600
28.937	48.100
29.937	49.700
30.937	49.300
31.937	46.300
32.937	49.500
33.936	48.649
34.936	48.600
35.936	45.600
36.936	49.100
37.936	48.800
38.936	46.900
39.936	47.300
40.936	43.600
41.936	48.700
42.936	50.000
43.936	47.900
44.998	44.350
45.936	50.107
46.936	44.100
47.936	45.400
48.994	48.960
49.936	46.072
50.936	47.100
51.935	46.847
52.997	45.763
53.935	46.802
54.999	48.026
55.935	44.979
56.935	45.500
57.935	47.300
58.935	42.600
59.935	45.700
60.935	47.300
61.997	48.493
62.992	42.211
63.935	50.265
64.935	43.600
65.935	46.700
66.935	44.400
67.935	45.200
68.934	42.142
69.934	47.500
70.934	45.300
71.934	46.400
72.934	45.500
73.934	45.600
74.934	42.600
75.934	46.100
76.934	44.800
77.934	23.200
78.934	24.100
79.988	33.302
80.934	39.641
81.934	45.400
82.934	44.200
83.934	44.600
84.934	44.500
85.934	42.500
86.933	46.547
87.933	45.900
88.933	44.400
89.933	45.100
90.933	41.600
91.933	46.900
92.933	47.100
93.933	45.600
94.933	41.500
95.933	46.100
96.933	47.800
97.933	47.500
98.998	43.568
99.933	43.209
100.933	45.700
101.933	45.400
102.933	47.600
103.993	44.528
104.932	43.770
105.932	45.800
106.932	46.000
107.932	13.400
