Time [s]	Current [nA]
0.000	13.968
1.000	55.594
2.000	54.195
3.058	50.184
4.000	56.682
5.088	48.477
6.004	55.671
7.060	52.362
8.001	57.593
9.001	53.295
10.001	53.395
11.004	54.730
12.063	47.871
13.003	57.547
14.000	54.257
15.001	52.395
16.004	52.836
17.006	54.785
18.005	50.045
19.001	53.509
20.059	49.901
21.001	55.939
22.004	54.830
23.001	49.845
24.003	53.587
25.064	50.750
26.002	55.965
27.064	50.277
28.002	53.300
29.059	52.123
30.063	53.381
31.062	52.647
32.059	52.352
33.005	58.451
34.005	48.995
35.006	54.795
36.064	50.373
37.002	55.645
38.006	51.887
39.009	55.029
40.063	48.382
41.002	56.970
42.059	49.759
43.064	52.433
44.015	57.302
45.007	48.835
46.005	55.505
47.002	53.355
48.002	51.895
49.002	53.295
50.002	50.695
51.002	54.795
52.002	52.995
53.061	49.665
54.002	56.317
55.004	52.789
56.003	51.097
57.062	51.742
58.003	55.786
59.062	48.720
60.003	55.149
61.005	53.288
62.003	49.193
63.008	52.731
64.003	53.261
65.002	52.047
66.006	52.039
67.011	54.223
68.005	50.096
69.066	49.854
70.003	54.744
71.003	51.695
72.006	53.933
73.010	48.501
74.003	54.073
75.003	53.095
76.005	52.442
77.008	51.939
78.006	49.895
79.008	53.388
80.004	48.288
81.069	53.234
82.064	53.462
83.004	52.335
84.005	52.143
85.069	50.606
86.004	52.401
87.065	53.435
88.004	49.622
89.005	52.642
90.009	52.983
91.004	48.437
92.065	52.964
93.066	52.442
94.093	53.646
95.076	39.405
