Time [s]	Current [nA]
0.000	37.306
0.925	53.195
1.925	50.605
2.925	52.305
3.925	51.205
4.925	52.005
5.981	51.093
6.923	51.704
8.009	53.965
8.981	48.462
9.923	55.632
10.923	51.705
11.923	49.405
12.923	54.105
13.923	47.705
14.923	51.005
15.980	52.463
16.922	51.067
17.922	51.205
18.922	52.105
19.922	47.405
20.922	50.805
21.922	50.105
22.922	52.805
23.980	50.100
24.982	51.802
25.920	47.928
26.920	49.305
27.920	24.602
28.983	29.166
29.920	45.789
30.920	43.404
31.920	49.105
32.920	53.605
33.920	46.605
34.979	48.258
35.919	49.208
36.919	50.205
37.919	49.205
39.007	50.281
39.919	51.102
40.975	48.206
41.918	47.407
42.918	49.005
43.918	48.905
44.918	51.805
45.917	51.905
46.978	48.638
47.917	49.845
48.971	53.136
49.917	54.762
50.917	48.805
51.917	52.405
52.917	45.905
53.917	50.305
54.917	55.005
55.978	50.382
56.916	50.645
57.916	46.705
58.915	51.056
59.973	51.139
60.915	53.296
61.915	48.405
62.915	53.005
63.915	46.605
64.915	50.405
65.914	55.406
66.914	47.705
67.914	52.305
68.973	48.352
69.914	49.739
70.970	52.089
71.969	50.656
72.914	51.010
73.914	52.805
74.914	46.605
75.913	54.505
76.912	50.155
77.912	47.305
78.912	50.805
79.912	51.705
80.968	48.016
81.912	47.992
82.912	54.005
83.975	48.735
84.912	50.592
85.920	49.856
86.911	46.221
87.911	50.505
88.911	50.805
89.911	50.905
90.911	47.205
91.911	49.705
92.911	49.605
93.910	54.360
94.910	47.705
95.909	52.305
96.909	45.805
97.909	50.205
98.909	55.206
100.119	23.391
