Time [s]	Current [nA]
0.000	14.765
1.000	48.595
2.000	44.296
3.000	46.995
3.999	46.642
4.999	45.995
6.001	47.747
7.000	44.040
8.000	46.895
9.000	46.195
10.000	46.495
11.000	46.695
12.000	44.696
13.000	48.695
14.000	47.195
15.000	42.796
16.001	46.195
17.001	48.795
18.001	44.996
19.001	47.495
20.001	48.095
21.001	47.495
22.000	46.542
23.000	49.195
24.000	45.295
25.000	47.395
26.051	49.233
27.058	41.704
28.001	51.957
29.001	43.996
30.001	48.295
31.001	48.295
32.064	44.022
33.001	49.515
34.001	44.396
35.001	48.695
36.002	47.195
37.002	47.195
38.002	51.495
39.062	51.504
40.001	51.646
41.063	51.878
42.001	56.498
43.001	52.795
44.055	50.185
45.064	54.657
46.002	48.183
47.002	52.895
48.002	51.895
49.002	18.298
50.002	23.098
51.002	35.296
52.002	39.996
53.002	46.795
54.002	49.295
55.002	52.395
56.065	52.066
57.002	53.463
58.002	53.495
59.002	52.195
60.002	52.795
61.002	52.195
62.002	50.395
63.002	53.995
64.002	51.895
65.002	51.395
66.065	48.865
67.003	52.234
68.003	53.295
69.003	51.195
70.003	51.195
71.003	51.795
72.003	51.395
73.003	48.995
74.002	54.049
75.002	46.995
76.003	50.495
77.003	50.795
78.003	51.995
79.003	46.095
80.003	50.995
81.003	50.595
82.003	50.495
83.003	50.395
84.003	52.295
85.003	46.895
86.066	52.255
87.004	46.690
88.004	48.795
89.004	50.495
90.004	44.896
91.003	50.946
92.003	49.395
93.003	48.295
94.003	48.395
95.003	44.995
96.004	49.995
97.004	47.895
98.004	48.595
99.004	48.495
100.080	46.278
101.004	47.831
102.004	49.995
103.010	48.405
104.004	14.485
