Time [s]	Current [nA]
0.000	1.556
1.086	54.783
1.999	53.883
2.999	51.395
3.999	50.895
5.053	48.143
6.000	55.961
7.000	48.795
8.057	49.002
9.057	49.695
10.000	53.441
11.000	50.695
12.000	47.695
13.000	52.195
14.000	50.695
15.001	49.895
16.001	49.895
17.001	52.095
18.001	47.595
19.062	48.252
20.000	54.152
21.062	47.547
22.071	50.441
23.000	52.417
24.000	53.295
25.001	51.795
26.001	49.995
27.001	51.095
28.068	49.573
29.001	52.514
30.001	51.595
31.001	51.195
32.001	50.595
33.001	49.795
34.001	51.295
35.002	47.895
36.002	51.795
37.001	50.145
38.001	50.295
39.001	51.995
40.001	47.595
41.001	52.095
42.001	50.695
43.001	49.695
44.001	50.195
45.002	47.595
46.002	52.195
47.002	50.895
48.066	35.429
49.002	20.724
50.002	26.797
51.002	37.596
52.002	45.695
53.002	46.795
54.059	46.353
55.001	53.179
56.002	47.395
57.002	51.495
58.002	50.395
59.002	47.995
60.002	49.295
61.002	49.595
62.002	46.395
63.060	49.144
64.002	53.498
65.003	50.195
66.003	50.795
67.003	47.895
68.003	52.595
69.003	51.395
70.061	46.971
71.003	52.436
72.002	50.345
73.002	49.395
74.002	52.395
75.002	50.595
76.003	49.895
77.003	51.495
78.062	49.948
79.003	51.323
80.003	51.295
81.066	49.101
82.003	54.850
83.061	48.105
84.003	52.436
85.003	54.095
86.004	51.595
87.004	52.095
88.063	49.192
89.003	52.973
90.003	52.595
91.003	54.595
92.066	49.384
93.061	52.859
94.003	55.939
95.003	49.395
96.060	52.078
97.004	56.350
98.004	52.295
99.004	51.895
100.072	51.212
101.004	7.188
