Time [s]	Current [nA]
0.000	48.822
1.000	48.595
2.080	52.032
3.063	49.232
4.056	51.757
5.001	55.397
6.001	51.695
7.060	50.137
8.001	52.067
9.001	52.895
10.090	47.654
11.067	53.424
12.064	52.552
13.057	47.528
14.058	54.340
15.001	50.844
16.001	51.495
17.001	50.795
18.001	51.495
19.067	50.089
20.001	52.243
21.001	47.295
22.067	54.122
23.067	53.195
24.066	57.752
25.002	53.257
26.052	56.756
27.060	57.534
28.002	60.928
29.064	53.573
30.002	57.457
31.098	57.841
32.064	54.239
33.060	59.532
34.060	56.794
35.067	57.251
36.002	57.000
37.002	53.295
38.002	57.394
39.002	55.894
40.060	54.437
41.002	60.928
42.060	49.900
43.056	59.833
44.002	54.540
45.003	56.094
46.069	57.593
47.003	56.847
48.058	50.801
49.065	56.499
50.065	61.294
51.063	49.795
52.077	55.123
53.070	58.806
54.065	58.185
55.062	50.196
56.003	59.080
57.061	51.413
58.003	55.408
59.003	56.794
60.003	50.195
61.069	56.373
62.064	54.065
63.003	51.965
64.060	53.164
65.003	54.501
66.068	56.009
67.003	52.080
68.068	55.581
69.003	53.471
70.016	54.190
71.003	48.931
72.003	53.195
73.003	52.995
74.068	54.736
75.066	50.045
76.004	52.980
77.004	52.895
78.069	53.140
79.066	52.051
80.004	52.234
81.004	52.795
82.004	49.595
83.003	52.647
84.003	52.095
85.003	50.895
86.004	53.495
87.004	48.395
88.004	52.095
89.004	51.995
90.061	49.191
91.092	51.401
92.070	53.982
93.057	21.173
