Time [s]	Current [nA]
0.000	49.095
1.060	61.032
2.000	58.398
3.001	60.234
4.000	54.449
5.067	59.750
6.001	56.525
7.063	56.492
8.001	62.041
9.001	54.695
10.001	58.394
11.001	57.794
12.001	57.294
13.001	59.194
14.001	54.195
15.002	57.494
16.063	59.655
17.001	55.005
18.001	58.294
19.001	53.295
20.058	55.434
21.001	60.015
22.001	56.394
23.001	56.394
24.001	52.995
25.001	57.394
26.002	56.294
27.002	56.294
28.002	55.994
29.002	56.094
30.002	53.695
31.002	57.994
32.002	55.194
33.002	54.395
34.060	51.413
35.001	55.680
36.002	57.294
37.002	49.695
38.002	54.995
39.002	53.695
40.062	55.372
41.002	53.718
42.061	53.441
43.002	53.023
44.002	53.595
45.062	55.519
46.003	54.086
47.003	55.594
48.003	48.495
49.003	52.995
50.003	53.095
51.002	53.348
52.002	55.794
53.002	49.895
54.002	54.095
55.002	52.795
56.003	52.995
57.003	54.795
58.003	53.195
59.003	50.695
60.003	53.495
61.003	53.395
62.003	52.995
63.003	55.294
64.003	50.595
65.003	53.995
66.004	52.495
67.004	53.395
68.004	47.395
69.003	54.749
70.003	54.795
71.003	26.697
72.003	22.198
73.003	33.297
74.003	38.396
75.003	48.495
76.004	49.195
77.004	50.995
78.067	48.537
79.004	55.597
80.004	49.195
81.066	50.748
82.004	55.432
83.004	51.295
84.062	48.672
85.004	51.799
86.004	53.548
87.091	47.649
88.004	51.364
89.004	50.395
90.069	52.483
91.004	50.904
92.004	47.895
93.004	50.495
94.004	18.998
