Time [s]	Current [nA]
0.000	7.403
1.000	32.097
1.942	42.459
2.942	43.196
3.942	48.795
4.942	49.595
6.001	46.782
6.943	52.436
7.943	50.695
8.942	46.842
9.942	50.395
10.942	49.995
11.942	48.995
12.942	48.595
13.942	49.595
14.942	45.795
15.943	49.295
16.943	47.895
17.943	47.595
19.002	46.738
19.943	47.710
21.001	47.443
21.998	48.741
23.002	48.402
23.943	51.217
25.003	46.926
25.944	48.135
26.943	48.844
27.943	48.695
28.943	48.095
29.943	50.095
30.943	45.095
31.943	52.195
32.943	50.495
33.943	48.495
34.943	48.995
35.944	50.695
36.944	46.495
37.944	49.095
38.944	48.395
40.003	45.793
40.944	52.598
41.944	50.395
42.944	46.495
43.943	48.844
44.943	47.695
45.998	45.346
46.944	52.849
47.944	45.995
49.001	46.731
50.001	48.495
50.944	51.426
51.944	49.095
52.944	47.195
53.944	49.595
54.944	48.395
55.945	47.095
57.002	49.853
57.945	47.291
58.945	45.495
59.945	47.695
60.945	47.795
61.944	47.142
62.944	47.495
64.002	46.404
64.944	48.084
66.001	45.734
66.945	50.313
67.945	47.695
68.945	50.195
69.945	44.496
71.002	46.542
72.007	48.453
72.945	50.421
73.945	47.795
74.947	50.095
75.946	46.789
76.946	49.295
77.946	47.795
79.002	46.018
79.945	53.335
80.945	44.296
82.003	48.483
82.945	51.587
83.945	48.095
84.945	48.595
85.946	49.595
86.946	45.895
87.946	49.095
88.946	48.495
89.946	48.195
90.946	49.295
91.946	49.495
92.946	46.695
93.946	48.495
94.946	47.895
95.947	48.795
96.946	49.945
97.946	45.995
99.004	46.498
99.946	51.056
100.946	48.195
101.946	48.795
102.946	46.795
104.022	39.401
