Time [s]	Current [nA]
0.000	42.096
1.000	49.295
2.000	47.795
3.000	47.195
4.000	46.795
5.001	45.195
6.001	49.095
7.001	47.595
8.062	44.199
9.001	50.581
10.000	49.244
11.000	45.295
12.000	50.195
13.000	47.395
14.000	43.896
15.000	47.995
16.055	47.528
17.001	52.849
18.001	43.496
19.001	47.695
20.001	47.695
21.001	47.995
22.001	50.195
23.001	45.295
24.001	47.795
25.002	46.795
26.002	47.395
27.001	49.344
28.001	45.096
29.001	48.195
30.001	49.095
31.001	48.395
32.001	47.295
33.001	44.296
34.001	49.395
35.001	47.695
36.002	45.995
37.002	45.895
38.002	45.995
39.002	53.295
40.002	55.194
41.002	53.795
42.002	53.695
43.002	53.595
44.055	48.428
45.001	53.589
46.002	53.795
47.002	53.195
48.002	52.795
49.081	55.972
50.002	52.003
51.063	52.115
52.067	53.680
53.002	51.225
54.002	52.095
55.002	54.695
56.003	49.295
57.003	53.295
58.003	52.595
59.003	52.695
60.003	52.695
61.003	50.295
62.002	54.249
63.065	49.948
64.002	56.024
65.002	52.095
66.003	50.095
67.003	53.695
68.015	51.279
69.003	47.465
70.003	51.395
71.003	50.995
72.003	52.995
73.003	48.895
74.063	52.825
75.003	48.080
76.004	51.695
77.004	52.295
78.004	51.895
79.004	46.995
80.003	51.146
81.003	50.395
82.003	50.195
83.003	51.995
84.003	46.895
85.003	50.495
86.004	49.795
87.004	49.895
88.004	50.795
89.004	49.495
90.004	46.795
91.004	49.695
92.004	49.495
93.004	49.595
94.004	50.195
95.067	46.982
96.005	46.371
97.004	48.344
98.064	49.429
99.004	46.166
100.129	34.130
