Time [s]	Current [nA]
0.000	26.080
1.056	50.468
2.000	53.490
3.000	54.994
4.000	53.795
5.000	52.495
6.001	52.595
7.001	48.895
8.001	51.795
9.001	54.095
10.001	51.795
11.001	51.595
12.057	48.669
13.000	51.320
14.061	54.848
15.060	46.789
16.001	54.086
17.001	50.895
18.001	50.995
19.001	46.495
20.001	52.495
21.001	50.595
22.001	50.295
23.001	50.395
24.001	46.695
25.001	51.595
26.060	47.916
27.002	52.436
28.002	49.595
29.001	49.344
30.001	47.395
31.001	51.695
32.001	49.695
33.001	49.195
34.001	48.695
35.001	50.895
36.064	48.771
37.002	47.543
38.002	49.595
39.002	47.995
40.002	48.495
41.002	46.395
42.059	47.961
43.002	52.487
44.002	48.795
45.002	48.995
46.003	45.695
47.002	48.944
48.002	49.795
49.063	46.649
50.002	51.646
51.060	46.120
52.002	48.615
53.002	50.095
54.059	46.542
55.002	51.320
56.060	46.637
57.010	52.837
58.003	44.406
59.061	48.388
60.064	48.550
61.003	50.900
62.003	47.595
63.062	45.605
64.002	47.548
65.002	48.895
66.060	45.123
67.003	50.048
68.003	48.395
69.003	44.896
70.003	49.695
71.061	45.553
72.003	51.163
73.003	47.495
74.003	44.696
75.060	46.776
76.062	48.498
77.004	51.056
78.065	44.953
79.004	49.942
80.004	44.996
81.004	48.295
82.003	46.942
83.003	46.395
84.003	47.195
85.003	44.296
86.004	48.195
87.004	46.995
88.004	45.895
89.004	45.695
90.061	44.839
91.004	47.397
92.004	50.195
93.004	47.695
94.004	46.595
95.062	45.029
96.005	51.851
97.005	43.796
98.005	48.295
99.004	47.743
100.004	46.795
101.004	47.295
102.061	46.542
103.532	0.340
