Time [s]	Current [nA]
0.000	26.010
1.007	50.442
2.010	51.939
3.010	55.594
4.000	53.934
5.001	57.594
6.001	51.795
7.007	60.133
8.001	51.303
9.001	57.394
10.001	54.595
11.059	54.626
12.001	53.286
13.000	54.649
14.000	54.595
15.001	56.594
16.001	51.595
17.001	54.195
18.001	53.395
19.053	50.755
20.090	51.490
21.003	60.344
22.001	50.396
23.059	50.657
24.001	55.621
25.058	49.616
26.060	54.186
27.002	52.861
28.002	53.195
29.002	53.195
30.002	52.495
31.001	52.347
32.063	51.878
33.060	48.440
34.008	54.636
35.009	51.195
36.002	47.025
37.064	54.326
38.002	50.848
39.006	51.190
40.002	47.485
41.068	52.059
42.063	51.151
43.002	50.581
44.002	48.295
45.058	49.189
46.061	51.141
47.003	53.498
48.061	49.617
49.002	49.304
50.002	52.595
51.002	51.895
52.059	47.394
53.060	49.745
54.003	53.547
55.003	47.243
56.003	50.395
57.003	49.795
58.003	49.895
59.008	50.841
60.019	49.055
61.003	48.471
62.003	50.595
63.003	49.395
64.003	49.395
65.003	46.395
66.057	48.808
67.003	52.637
68.003	48.595
69.003	48.795
70.003	49.395
71.062	47.682
72.003	49.304
73.058	46.915
74.059	47.847
75.060	48.995
76.004	53.385
77.004	46.295
78.004	50.595
79.060	47.722
80.004	53.067
81.004	49.695
82.004	46.495
83.003	50.145
84.061	45.931
85.003	51.163
86.004	48.895
87.006	50.793
88.066	48.863
89.076	49.203
90.004	48.163
91.004	49.795
92.004	47.895
93.008	50.493
94.004	46.481
95.004	49.495
96.005	48.895
97.005	49.895
98.065	35.185
