Time [s]	Current [nA]
0.000	14.715
1.000	48.095
2.000	47.695
3.058	45.270
4.000	48.297
5.056	47.010
6.058	48.398
7.001	49.730
8.058	43.420
9.001	46.549
10.001	47.295
11.059	45.742
12.001	49.995
13.001	47.195
14.000	47.443
15.000	44.196
16.001	47.795
17.001	47.395
18.001	45.795
19.058	43.893
20.001	46.231
21.001	46.995
22.001	49.195
23.001	46.895
24.001	46.595
25.001	47.095
26.056	46.105
27.002	48.092
28.002	47.795
29.002	47.095
30.002	48.395
31.002	48.495
32.001	44.840
33.001	49.395
34.062	45.424
35.064	47.947
36.002	50.848
37.002	45.295
38.002	49.695
39.002	48.395
40.002	47.695
41.057	45.493
42.098	51.964
43.002	43.580
44.061	46.643
45.002	51.004
46.065	44.722
47.003	50.421
48.061	46.593
49.002	47.817
50.002	47.995
51.002	48.395
52.002	46.695
53.059	44.556
54.002	47.927
55.002	49.595
56.003	48.295
57.003	47.795
58.003	47.895
59.003	45.595
60.003	49.195
61.003	49.095
62.061	45.364
63.003	50.101
64.003	47.995
65.003	45.695
66.004	25.697
67.003	20.619
68.003	30.597
69.003	38.596
70.003	45.195
71.003	41.196
72.061	47.065
73.003	52.224
74.003	47.695
75.003	47.995
76.004	45.995
77.065	51.833
78.004	47.706
79.004	47.495
80.004	47.595
81.086	46.206
82.004	48.797
83.062	46.782
84.003	51.111
85.003	47.195
86.004	47.295
87.062	46.971
88.004	47.766
89.004	49.095
90.004	47.595
91.004	47.395
92.004	47.495
93.004	45.795
94.004	49.895
95.004	48.795
96.005	48.195
97.005	48.195
98.005	49.895
99.005	46.095
100.005	48.395
101.067	44.722
102.004	49.622
103.061	45.123
104.004	48.245
105.004	49.795
106.005	48.695
108.025	15.493
