Time [s]	Current [nA]
0.000	45.795
1.000	57.494
2.000	55.294
3.000	52.895
4.000	54.595
5.001	55.094
6.001	54.795
7.001	55.994
8.001	56.494
9.000	51.246
10.000	54.495
11.000	54.795
12.000	54.595
13.057	53.542
14.055	56.808
15.062	56.058
16.001	52.817
17.001	54.795
18.001	56.794
19.001	52.695
20.001	55.094
21.001	55.594
22.001	54.495
23.062	56.074
24.001	54.840
25.002	51.395
26.001	55.650
27.063	56.303
28.001	52.660
29.001	56.194
30.001	51.395
31.001	56.094
32.001	55.694
33.001	54.994
34.001	54.895
35.001	57.094
36.058	54.256
37.002	54.338
38.002	55.094
39.002	54.995
40.002	57.294
41.002	56.294
42.068	54.216
43.002	53.421
44.001	55.350
45.056	53.220
46.002	60.142
47.002	52.695
48.064	53.479
49.002	58.843
50.002	55.294
51.002	51.195
52.089	57.400
53.002	58.264
54.002	55.894
55.002	56.094
56.003	51.095
57.003	57.194
58.003	52.395
59.003	55.994
60.003	55.094
61.002	55.650
62.002	55.194
63.002	58.094
64.002	56.894
65.065	53.102
66.003	53.300
67.003	55.494
68.003	57.294
69.062	54.858
70.085	54.540
71.003	55.986
72.064	57.487
73.003	53.562
74.003	57.194
75.003	57.794
76.004	51.495
77.004	55.194
78.069	57.647
79.003	55.990
80.003	52.495
81.003	57.094
82.003	56.294
83.003	55.594
84.003	55.494
85.003	57.894
86.004	57.494
87.004	52.195
88.066	57.810
89.004	54.366
90.059	39.333
