Time [s]	Current [nA]
0.000	22.711
1.000	49.995
2.000	49.195
3.000	43.496
4.000	46.395
5.001	46.595
6.059	45.081
7.012	50.992
8.080	44.284
9.000	45.974
10.000	46.995
11.000	47.195
12.000	48.095
13.000	43.496
14.000	46.995
15.001	43.796
16.001	45.295
17.001	39.096
18.001	45.895
19.001	47.495
20.001	45.895
21.001	45.395
22.001	44.796
23.001	42.896
24.001	46.795
25.060	42.907
26.001	47.923
27.001	44.696
28.001	41.596
29.001	46.595
30.001	46.495
31.001	45.595
32.001	45.695
33.001	45.495
34.001	42.696
35.002	46.895
36.063	43.634
37.002	42.168
38.002	43.896
39.002	45.495
40.002	48.495
41.002	44.296
42.002	48.195
43.001	46.041
44.001	38.396
45.001	49.795
46.002	45.395
47.002	47.695
48.002	48.095
49.002	47.695
50.002	47.195
51.002	49.295
52.002	45.295
53.002	47.995
54.002	47.895
55.003	47.795
56.003	49.795
57.003	44.196
58.003	48.295
59.003	48.395
60.002	48.143
61.002	47.595
62.002	50.195
63.002	45.895
64.002	48.595
65.002	47.495
66.003	47.895
67.061	47.254
68.003	46.068
69.003	49.795
70.064	45.613
71.003	50.794
72.003	48.295
73.003	45.895
74.003	50.695
75.003	49.095
76.065	45.707
77.004	51.646
78.003	44.840
79.003	49.995
80.003	50.795
81.003	49.095
82.003	48.795
83.003	49.095
84.003	46.595
85.003	50.595
86.004	49.495
87.004	49.195
88.004	49.495
89.004	45.295
90.004	52.195
91.004	51.695
92.004	45.795
93.064	50.844
94.063	49.645
95.060	47.485
96.004	55.079
97.004	46.195
98.004	51.195
99.004	50.395
100.004	50.495
101.004	52.595
102.004	48.095
103.004	51.095
104.004	49.895
105.004	50.295
106.058	13.769
