Time [s]	Current [nA]
0.000	20.428
1.000	50.595
2.000	55.394
3.000	49.295
4.000	52.695
5.001	56.994
6.066	51.920
7.000	52.457
8.000	53.895
9.000	48.495
10.000	52.695
11.000	52.495
12.061	57.110
13.000	53.349
14.000	49.095
15.000	52.595
16.001	57.094
17.001	49.995
18.001	53.395
19.052	52.516
20.001	51.312
21.001	53.195
22.001	52.695
23.001	54.895
24.001	54.595
25.000	48.844
26.001	52.895
27.001	52.595
28.096	54.059
29.001	54.470
30.001	49.795
31.001	53.395
32.001	53.295
33.001	53.195
34.001	54.695
35.001	49.795
36.002	52.595
37.002	52.795
38.002	54.095
39.002	52.895
40.002	50.095
41.002	54.295
42.001	53.348
43.001	52.595
44.001	53.295
45.001	49.695
46.002	55.094
47.002	52.795
48.002	48.895
49.002	52.495
50.002	52.395
51.002	54.295
52.002	49.395
53.068	54.591
54.067	52.347
55.002	50.262
56.003	54.095
57.003	47.395
58.003	54.495
59.003	52.395
60.002	52.347
61.002	52.495
62.002	54.095
63.002	49.395
64.052	50.376
65.065	56.615
66.003	49.782
67.003	54.295
68.003	47.295
69.003	54.395
70.003	52.395
71.003	52.095
72.003	52.095
73.003	49.295
74.003	54.195
75.003	52.795
76.004	51.995
77.003	52.147
78.003	47.695
79.003	54.195
80.065	51.407
81.003	51.914
82.003	56.794
83.003	23.298
84.003	19.298
85.063	29.081
86.004	37.935
87.004	45.495
88.004	47.595
89.004	52.795
90.004	55.894
91.004	51.195
92.061	51.367
93.004	56.198
94.004	52.795
95.003	55.850
96.004	51.195
97.283	39.402
