Time [s]	Current [nA]
0.000	24.856
1.062	51.031
2.000	48.396
3.000	46.095
4.058	46.026
5.001	50.632
6.001	47.795
7.055	46.770
8.001	47.247
9.001	47.095
10.001	47.295
11.001	47.495
12.055	44.967
13.001	52.003
14.001	45.195
15.002	48.795
16.002	46.695
17.001	46.242
18.001	48.795
19.001	43.696
20.056	46.820
21.001	50.683
22.001	47.695
23.001	47.395
24.001	49.095
25.002	45.395
26.002	48.695
27.002	47.195
28.002	47.495
29.002	49.295
30.002	43.796
31.002	49.195
32.002	48.295
33.002	46.795
34.056	44.303
35.001	52.693
36.002	45.495
37.002	47.595
38.002	46.795
39.002	46.795
40.002	48.195
41.002	45.095
42.002	49.395
43.002	48.295
44.002	47.495
45.003	47.895
46.003	45.395
47.003	48.995
48.003	47.595
49.003	47.295
50.003	48.095
51.003	47.995
52.002	44.840
53.002	49.695
54.061	45.416
55.002	45.373
56.003	47.095
57.003	48.395
58.003	48.995
59.003	47.595
60.003	43.896
61.003	46.995
62.003	46.895
63.003	48.495
64.003	48.895
65.063	44.849
66.004	44.735
67.004	49.995
68.004	44.596
69.004	47.395
70.061	45.029
71.070	47.567
72.003	46.405
73.064	47.875
74.003	47.599
75.003	49.195
76.004	43.796
77.057	52.321
78.061	50.692
79.004	50.472
80.004	52.395
81.053	50.901
82.004	48.891
83.004	50.995
84.004	50.995
85.004	53.195
86.064	50.325
87.067	51.740
88.062	50.950
89.004	53.816
90.004	46.495
91.004	36.596
92.067	15.615
93.004	24.971
94.004	34.197
95.004	40.996
96.005	46.195
97.005	51.295
98.087	47.685
99.005	50.866
100.059	52.462
101.005	48.938
102.005	52.595
103.063	49.900
104.062	51.747
105.004	53.073
106.005	14.799
