Time [s]	Current [nA]
0.000	8.162
1.000	54.895
2.000	55.394
3.058	54.626
4.000	55.621
5.001	57.594
6.001	56.594
7.056	52.791
8.056	55.794
9.058	57.978
10.001	56.728
11.001	56.394
12.059	52.925
13.001	58.911
14.000	58.052
15.001	50.895
16.001	58.394
17.001	56.794
18.001	55.694
19.001	56.394
20.001	57.294
21.001	52.795
22.001	57.194
23.001	55.294
24.056	52.791
25.002	60.629
26.055	53.841
27.002	55.961
28.002	56.994
29.002	55.294
30.002	55.494
31.002	53.295
32.001	57.652
33.001	56.794
34.001	55.394
35.002	55.494
36.002	55.794
37.002	52.995
38.002	57.394
39.002	56.394
40.002	55.095
41.002	55.194
42.002	57.894
43.002	53.095
44.002	56.294
45.003	55.794
46.003	55.094
47.057	52.462
48.003	61.305
49.002	52.647
50.002	56.394
51.002	55.694
52.002	55.294
53.002	58.094
54.002	52.795
55.003	57.094
56.061	53.870
57.003	59.867
58.003	55.894
59.003	52.995
60.003	58.194
61.003	51.595
62.003	55.694
63.059	57.286
64.003	55.821
65.003	56.194
66.003	56.851
67.058	53.075
68.003	53.011
69.061	56.894
70.003	56.045
71.003	57.494
72.003	50.895
73.003	55.095
74.003	59.894
75.003	51.495
76.004	56.994
77.004	52.595
78.004	55.494
79.004	60.294
80.004	50.695
81.004	57.094
82.004	57.394
83.004	50.795
84.003	55.150
85.003	54.995
86.004	54.895
87.061	54.583
88.004	59.909
89.004	50.895
90.102	45.988
