Time [s]	Current [nA]
0.000	39.996
1.000	53.295
2.000	51.795
2.999	51.146
3.999	50.695
4.999	53.195
6.000	48.595
7.000	51.095
8.000	52.595
9.000	51.095
10.000	50.995
11.000	48.795
12.000	53.695
13.000	50.795
14.000	50.895
15.000	51.095
16.001	48.895
17.001	52.695
18.001	52.295
19.001	47.695
20.061	52.353
21.000	48.770
22.000	51.795
23.000	52.795
24.000	46.195
25.000	50.295
26.059	51.413
27.001	50.207
28.001	51.595
29.001	52.195
30.062	48.534
31.001	48.557
32.068	51.354
33.001	51.120
34.001	52.495
35.001	46.295
36.002	50.395
37.002	49.295
38.001	49.945
39.001	52.795
40.001	51.195
41.001	45.995
42.001	49.995
43.001	54.695
44.001	47.895
45.001	52.395
46.002	45.495
47.002	50.795
48.002	49.995
49.002	50.495
50.002	47.995
51.002	51.595
52.002	50.195
53.002	48.895
54.002	48.595
55.065	48.394
56.002	49.301
57.002	50.995
58.002	49.595
59.064	46.041
60.002	51.914
61.002	47.295
62.002	50.995
63.013	49.847
64.060	47.655
65.002	47.660
66.003	51.695
67.003	49.895
68.003	50.795
69.003	44.995
70.003	48.195
71.003	13.899
72.003	18.798
73.002	26.224
74.064	35.966
75.002	39.228
76.003	42.596
77.003	47.995
78.003	51.595
79.003	52.195
80.014	50.242
81.003	46.305
82.064	51.361
83.003	49.196
84.003	50.295
85.003	45.995
86.004	48.995
87.060	50.468
88.090	48.442
89.004	50.323
90.004	50.795
91.065	46.744
92.003	46.904
93.003	48.695
94.003	50.095
95.003	46.595
96.004	47.995
97.004	48.595
98.004	47.795
99.004	48.095
100.004	49.795
101.004	45.295
102.004	48.695
103.004	5.499
