Time [s]	Current [nA]
0.000	17.251
1.081	48.839
2.000	53.531
3.000	52.295
4.000	50.895
5.001	50.695
6.059	48.861
7.001	50.950
8.001	51.695
9.001	50.395
10.001	50.395
11.001	50.595
12.001	48.995
13.000	52.347
14.058	48.766
15.001	52.967
16.001	50.295
17.001	51.795
18.001	47.195
19.001	50.195
20.001	50.095
21.001	49.495
22.001	49.095
23.011	51.084
24.001	47.874
25.002	50.395
26.002	49.595
27.002	50.095
28.002	47.495
29.002	51.295
30.001	45.241
31.001	50.695
32.001	50.195
33.001	49.995
34.001	51.395
35.064	48.677
36.002	47.863
37.002	48.795
38.002	49.595
39.002	47.595
40.002	49.495
41.059	49.853
42.064	50.741
43.002	53.193
44.002	49.495
45.062	48.626
46.065	52.138
47.058	45.715
48.057	49.945
49.002	52.482
50.002	51.495
51.002	50.795
52.002	47.595
53.002	50.295
54.002	49.195
55.003	48.895
56.003	50.395
57.003	46.295
58.003	49.795
59.058	46.346
60.003	51.423
61.003	49.695
62.003	51.795
63.003	46.695
64.003	49.895
65.003	48.444
66.003	49.295
67.003	51.095
68.003	47.495
69.003	50.495
70.065	47.359
71.003	52.553
72.003	49.395
73.003	51.695
74.003	47.395
75.003	50.695
76.004	48.795
77.004	49.595
78.004	51.495
79.004	47.095
80.004	49.195
81.004	50.195
82.004	49.495
83.003	50.345
84.003	47.295
85.003	51.695
86.004	46.295
87.004	49.395
88.064	50.561
89.004	49.676
90.094	45.500
91.004	50.874
92.004	49.795
93.004	49.295
94.004	48.595
95.004	50.395
96.005	50.395
97.005	44.995
98.065	49.146
99.005	47.017
100.004	49.144
101.004	24.398
