Time [s]	Current [nA]
0.000	37.834
1.000	55.894
2.000	49.695
3.000	53.395
4.000	53.195
5.001	55.094
6.058	52.880
7.006	57.062
8.001	50.447
9.001	53.495
10.063	56.397
11.001	53.939
12.064	52.864
13.058	49.291
14.001	56.304
15.002	52.895
16.002	55.294
17.103	49.223
18.001	53.892
19.001	53.395
20.001	52.395
21.001	52.395
22.001	54.695
23.001	49.495
24.057	50.279
25.002	55.503
26.002	52.095
27.058	51.794
28.002	50.525
29.051	52.235
30.002	55.725
31.002	52.795
32.002	53.095
33.063	51.361
34.002	52.284
35.060	49.853
36.056	51.601
37.002	54.223
38.002	51.395
39.002	20.398
40.060	14.649
41.002	27.917
42.002	33.497
43.002	40.696
44.057	43.408
45.064	50.393
46.081	53.584
47.061	49.893
48.061	53.795
49.003	57.001
50.003	50.895
51.003	54.695
52.003	52.995
53.059	50.184
54.002	56.410
55.003	50.495
56.064	57.299
57.003	50.794
58.003	52.895
59.003	52.895
60.058	50.516
61.059	55.039
62.003	53.067
63.059	50.279
64.003	54.867
65.003	52.395
66.004	54.295
67.004	48.595
68.004	54.095
69.062	49.806
70.003	55.149
71.003	51.995
72.003	53.895
73.003	48.095
74.003	51.395
75.003	50.695
76.004	52.095
77.009	53.328
78.004	46.528
79.004	53.395
80.004	51.195
81.004	50.795
82.004	50.295
83.004	48.095
84.004	51.995
85.062	47.772
86.005	53.123
87.005	50.695
88.081	46.928
89.063	52.439
90.004	49.517
91.004	50.795
92.004	49.895
93.004	49.495
94.005	52.043
95.004	47.142
96.005	50.295
97.059	47.244
98.005	47.881
