Time [s]	Current [nA]
0.000	15.763
1.062	49.148
2.000	44.345
3.000	48.695
4.000	48.395
5.001	47.695
6.001	47.995
7.001	46.495
8.001	49.595
9.001	48.995
10.001	47.095
11.001	47.795
12.001	45.795
13.001	49.095
14.078	44.842
15.067	49.287
16.002	46.306
17.001	47.743
18.001	49.195
19.001	49.695
20.001	43.896
21.001	47.895
22.001	48.495
23.001	49.995
24.001	44.396
25.002	49.395
26.002	49.395
27.069	50.417
28.064	49.342
29.002	48.929
30.002	17.098
31.068	15.571
32.002	27.406
33.002	33.197
34.001	37.334
35.001	41.896
36.065	44.022
37.064	50.245
38.065	49.945
39.061	50.095
40.068	52.726
41.065	47.538
42.059	50.800
43.002	47.927
44.058	50.847
45.087	49.509
46.003	50.213
47.003	47.495
48.003	49.495
49.003	48.495
50.003	49.095
51.003	51.195
52.062	48.532
53.002	48.399
54.065	51.923
55.068	49.795
56.003	48.444
57.003	51.995
58.065	48.677
59.003	48.289
60.069	51.027
61.003	47.747
62.003	50.595
63.003	47.095
64.003	50.195
65.003	50.895
66.004	49.995
67.004	50.295
68.060	48.480
69.003	48.882
70.003	50.695
71.003	49.095
72.003	48.895
73.003	46.295
74.003	49.495
75.003	50.095
76.004	48.895
77.004	48.895
78.004	48.595
79.004	45.995
80.004	51.895
81.004	44.896
82.004	48.995
83.004	48.695
84.004	50.895
85.004	49.095
86.005	46.395
87.004	49.244
88.004	48.895
89.004	48.995
90.004	50.195
91.004	45.995
92.004	49.295
93.004	48.995
94.004	49.895
95.004	49.195
96.005	50.795
97.005	46.095
98.005	48.395
99.005	48.495
100.005	48.795
101.005	49.995
102.005	46.495
103.072	50.510
104.004	47.957
105.078	37.834
