Time [s]	Current [nA]
0.000	37.896
1.000	49.795
2.094	50.909
3.000	45.470
4.055	48.526
5.059	50.045
6.001	52.649
7.001	49.195
8.001	46.495
9.001	50.895
10.001	48.895
11.063	46.323
12.001	51.594
13.001	48.595
14.001	46.195
15.060	47.443
16.002	52.118
17.001	48.544
18.001	48.495
19.001	46.395
20.001	50.195
21.065	29.038
22.001	15.597
23.001	23.198
24.063	29.846
25.062	39.475
26.002	41.485
27.002	44.796
28.002	47.595
29.002	49.395
30.002	46.995
31.096	51.092
32.002	51.982
33.064	46.700
34.001	53.250
35.061	47.210
36.063	51.492
37.064	51.344
38.063	45.141
39.060	48.842
40.060	48.395
41.002	51.906
42.002	45.695
43.002	50.895
44.059	46.164
45.002	51.532
46.003	48.495
47.003	45.795
48.003	50.795
49.061	46.309
50.063	48.099
51.003	51.697
52.077	45.340
53.067	51.914
54.061	47.380
55.064	49.296
56.003	47.280
57.061	52.074
58.072	45.198
59.003	49.404
60.003	48.795
61.065	46.041
62.061	48.790
63.062	50.145
64.058	47.084
65.059	50.895
66.069	49.599
67.064	48.538
68.070	48.902
69.061	47.018
70.083	48.625
71.003	50.973
72.003	49.295
73.062	50.609
74.065	47.951
75.003	48.503
76.061	47.961
77.065	49.995
78.004	46.641
79.004	48.595
80.094	51.371
81.066	45.057
82.069	50.344
83.004	48.124
84.004	49.095
85.004	48.495
86.007	49.795
87.056	48.994
88.062	43.634
89.062	48.495
90.065	48.151
91.083	47.441
92.004	51.026
93.060	47.722
94.004	47.877
95.004	47.495
96.066	51.456
97.005	44.192
98.005	50.895
99.005	48.595
100.005	49.295
101.005	48.495
102.065	47.354
103.061	45.678
104.059	49.494
105.004	15.131
