Time [s]	Current [nA]
0.000	39.896
1.094	50.086
2.000	43.704
3.000	49.595
4.058	45.553
5.059	47.295
6.001	54.029
7.062	49.665
8.001	51.752
9.001	51.595
10.000	51.847
11.000	50.795
12.001	50.544
13.004	52.138
14.000	48.690
15.001	51.095
16.001	50.195
17.057	47.344
18.001	55.397
19.001	47.895
20.003	51.392
21.001	51.598
22.001	49.995
23.001	49.795
24.001	52.495
25.003	48.547
26.002	51.546
27.057	47.389
28.002	52.587
29.001	52.147
30.003	45.804
31.001	52.700
32.001	50.895
33.060	47.304
34.060	50.195
35.002	55.786
36.065	50.324
37.002	49.408
38.057	47.768
39.002	53.857
40.007	51.338
41.002	46.227
42.002	52.995
43.059	47.867
44.001	52.649
45.001	50.295
46.065	48.819
47.002	50.795
48.060	48.105
49.002	53.286
50.003	50.644
51.003	50.795
52.002	47.743
53.003	51.643
54.002	50.646
55.003	49.795
56.003	49.895
57.006	51.640
58.003	33.597
59.076	12.208
60.003	22.112
61.003	28.997
62.057	34.057
63.004	45.508
64.003	41.838
65.002	50.045
66.003	50.895
67.003	51.095
68.006	51.640
69.003	47.738
70.090	52.249
71.065	46.662
72.003	53.833
73.003	46.295
74.004	52.442
75.063	48.955
76.004	48.773
77.064	50.278
78.004	46.166
79.003	51.346
80.003	50.495
81.003	45.895
82.065	50.842
83.003	47.117
84.003	48.795
85.003	49.995
86.006	50.494
87.004	44.885
88.062	49.522
89.004	45.643
90.006	49.396
91.004	48.993
92.068	46.612
93.004	48.179
94.066	49.524
95.004	46.477
96.060	46.536
97.004	51.796
98.065	46.178
99.004	45.256
100.004	47.195
101.004	47.095
102.004	50.195
103.004	23.798
