Time [s]	Current [nA]
0.000	13.641
0.934	49.567
1.934	50.695
2.934	46.595
3.934	49.895
4.934	49.795
5.935	50.795
6.935	47.195
7.935	36.596
8.935	13.699
9.935	21.698
10.935	31.497
12.015	35.182
12.935	44.778
13.935	45.395
14.935	49.995
15.936	50.895
17.005	49.013
17.935	51.500
18.935	50.495
19.935	51.395
20.935	50.495
21.935	50.495
22.935	47.295
23.935	51.695
24.935	46.195
25.936	53.495
26.936	45.695
27.936	50.595
28.936	50.995
29.942	49.100
30.936	47.178
31.936	53.095
32.936	53.195
33.936	55.394
34.935	50.646
35.936	53.495
36.936	52.995
37.936	52.895
38.936	54.795
39.936	49.495
41.002	56.373
41.936	51.815
42.998	50.560
43.936	56.284
44.936	50.495
45.937	55.194
46.937	53.095
47.937	53.095
48.937	52.695
49.937	49.495
50.937	53.095
51.936	54.849
52.936	53.295
53.936	52.795
54.995	49.759
55.937	53.873
56.937	51.195
57.937	53.595
58.937	53.595
59.937	52.795
60.937	54.295
61.937	54.095
62.999	52.537
63.937	51.061
64.937	52.295
65.938	52.795
66.938	49.995
67.938	54.395
68.937	53.048
69.999	49.430
70.937	55.538
71.937	52.795
72.937	50.395
73.937	54.695
74.937	52.695
75.938	52.395
76.938	53.095
77.938	49.595
78.938	54.395
79.941	52.138
80.938	46.936
81.938	55.694
83.000	48.865
83.938	52.020
84.938	53.595
85.939	47.695
86.938	51.847
87.938	52.195
88.938	53.695
89.938	47.795
90.938	53.195
91.938	51.995
92.938	51.495
93.938	51.195
94.938	53.295
95.939	49.095
96.939	52.295
97.939	51.595
98.939	51.895
99.992	14.339
