Time [s]	Current [nA]
0.000	0.937
1.000	49.695
2.000	45.795
3.000	48.395
4.000	47.295
5.001	47.395
6.001	49.095
7.001	48.795
8.001	44.496
9.001	47.095
10.001	47.495
11.001	46.895
12.000	49.044
13.000	48.795
14.000	43.496
15.001	47.095
16.001	47.095
17.001	34.997
18.001	12.799
19.001	18.598
20.001	27.797
21.001	33.597
22.001	38.596
23.001	41.596
24.001	47.695
25.002	45.395
26.002	48.995
27.002	48.195
28.002	48.795
29.002	50.595
30.060	48.010
31.001	46.648
32.001	47.695
33.001	47.695
34.001	49.895
35.002	49.895
36.086	45.198
37.002	48.248
38.002	47.895
39.002	48.595
40.002	50.195
41.002	45.495
42.002	48.095
43.002	48.195
44.062	49.995
45.003	48.187
46.003	49.395
47.063	46.410
48.002	47.280
49.002	47.795
50.002	47.995
51.002	49.295
52.002	44.896
53.002	47.995
54.002	47.595
55.003	47.395
56.003	49.495
57.003	48.195
58.003	44.896
59.062	49.192
60.003	45.054
61.003	47.395
62.058	46.725
63.003	51.847
64.003	44.796
65.003	46.542
66.065	48.300
67.003	46.264
68.003	49.295
69.003	44.896
70.003	47.695
71.003	47.395
72.003	47.195
73.003	48.995
74.003	50.095
75.003	44.796
76.004	47.495
77.069	48.352
78.004	46.626
79.004	49.995
80.061	46.921
81.064	47.852
82.003	45.043
83.003	47.095
84.003	48.895
85.005	49.496
86.004	43.583
87.064	49.523
88.004	45.740
89.004	47.295
90.058	46.770
91.063	48.851
92.063	48.395
93.065	47.500
94.065	46.895
95.062	44.072
96.080	47.147
97.066	49.894
98.005	45.895
99.065	48.486
100.064	46.842
101.053	44.990
102.005	51.360
103.065	44.996
104.063	46.689
105.063	46.742
106.060	43.927
107.005	49.307
108.123	33.181
