Time [s]	Current [nA]
0.000	5.939
1.000	50.195
2.000	47.195
3.000	50.395
4.000	48.895
5.001	47.695
6.001	47.695
7.001	47.695
8.001	45.595
9.058	47.583
10.000	52.012
11.000	48.895
12.000	48.495
13.000	45.695
14.000	49.795
15.000	48.295
16.001	44.696
17.001	47.995
18.062	49.288
19.056	45.770
20.001	51.847
21.001	44.596
22.001	47.595
23.001	48.395
24.001	50.295
25.003	49.446
26.001	45.787
27.001	48.895
28.001	48.095
29.001	47.895
30.001	46.795
31.001	50.495
32.001	48.595
33.001	48.495
34.001	48.095
35.001	45.295
36.002	49.495
37.064	47.170
38.002	51.274
39.002	47.895
40.002	47.495
41.064	46.417
42.065	45.650
43.001	51.277
44.001	47.795
45.064	45.193
46.002	51.487
47.002	45.895
48.002	49.695
49.002	48.295
50.002	43.896
51.002	48.195
52.002	50.095
53.002	45.695
54.002	47.595
55.002	48.095
56.003	47.395
57.063	48.957
58.003	47.442
59.058	47.199
60.003	46.768
61.002	47.843
62.002	47.395
63.060	46.782
64.002	46.917
65.002	48.195
66.003	47.295
67.003	47.395
68.063	49.146
69.003	47.761
70.003	49.395
71.003	44.496
72.003	48.395
73.003	48.495
74.003	49.695
75.003	49.095
76.069	46.568
77.004	46.199
78.003	48.043
79.003	48.095
80.003	50.395
81.063	47.071
82.003	47.017
83.003	47.795
84.003	48.695
85.003	49.695
86.004	45.495
87.004	50.295
88.004	48.595
89.004	44.396
90.004	48.095
91.004	49.295
92.004	45.395
93.004	48.295
94.004	48.295
95.004	48.095
96.004	48.544
97.062	47.632
98.004	47.978
99.004	48.895
100.062	44.986
101.004	51.269
102.004	45.495
103.004	50.095
104.004	48.795
105.004	10.599
