Time [s]	Current [nA]
0.000	6.275
1.000	46.395
2.000	45.895
3.000	47.795
4.091	43.534
5.000	47.740
6.001	46.795
7.001	46.495
8.001	46.595
9.060	45.038
10.001	46.967
11.067	48.307
12.066	46.142
13.001	44.488
14.001	47.295
15.000	48.043
16.001	44.096
17.001	46.595
18.001	46.095
19.001	46.095
20.001	47.395
21.001	43.596
22.001	46.895
23.001	45.595
24.001	44.896
25.001	45.595
26.002	47.895
27.062	45.184
28.002	43.932
29.002	45.895
30.002	45.795
31.002	46.795
32.001	47.443
33.001	42.396
34.001	46.095
35.001	45.395
36.002	44.995
37.002	47.195
38.002	46.795
39.002	42.296
40.002	44.995
41.067	46.756
42.002	45.771
43.002	47.095
44.002	42.096
45.002	46.295
46.003	47.595
47.003	47.695
48.066	46.562
49.003	47.594
50.002	47.743
51.002	47.395
52.067	48.728
53.002	47.268
54.002	47.695
55.002	44.296
56.003	47.495
57.068	48.821
58.003	45.771
59.003	49.595
60.003	44.596
61.063	49.429
62.003	45.527
63.003	47.295
64.003	48.095
65.003	48.195
66.004	45.195
67.003	47.543
68.003	47.395
69.003	47.095
70.003	48.995
71.003	44.496
72.003	47.895
73.003	47.995
74.003	48.195
75.003	48.095
76.004	45.095
77.004	49.095
78.004	48.295
79.004	47.495
80.004	47.395
81.067	45.809
82.065	49.795
83.004	45.469
84.004	47.995
85.003	47.443
86.004	47.195
87.064	46.505
88.065	48.746
89.004	46.428
90.004	47.195
91.062	44.419
92.061	48.444
93.004	48.033
94.004	47.995
95.004	47.695
96.005	46.995
97.005	46.895
98.005	48.295
99.005	44.995
100.005	48.395
101.005	47.395
102.004	47.142
103.004	44.296
104.004	47.295
105.004	49.195
106.005	47.295
107.005	29.197
108.005	11.699
109.005	4.600
