Time [s]	Current [nA]
0.000	26.725
1.000	64.494
2.000	62.694
3.000	64.993
4.000	58.994
5.059	60.107
6.001	65.705
7.001	61.894
8.081	58.513
9.000	68.655
10.000	58.694
11.058	59.068
12.000	64.856
13.000	60.694
14.059	59.767
15.000	61.843
16.059	58.784
17.001	64.325
18.001	60.994
19.001	60.994
20.001	58.394
21.001	62.994
22.001	62.494
23.001	60.694
24.001	60.494
25.060	59.824
26.001	61.630
27.083	62.840
28.001	59.035
29.001	60.094
30.060	57.785
31.001	61.099
32.060	60.995
33.059	61.655
34.001	65.811
35.001	57.394
36.002	65.193
37.010	64.180
38.002	63.199
39.002	57.694
40.002	67.293
41.002	62.294
42.002	59.194
43.001	66.360
44.001	57.294
45.001	67.893
46.002	62.794
47.002	59.494
48.098	65.322
49.002	62.936
50.061	59.673
51.002	60.568
52.002	68.293
53.002	59.594
54.002	65.593
55.002	57.694
56.003	67.793
57.060	59.691
58.003	61.924
59.003	64.494
60.002	65.859
61.015	62.876
62.002	58.150
63.002	62.494
64.063	67.383
65.002	63.252
66.061	59.635
67.003	60.504
68.003	67.793
69.003	57.494
70.003	66.093
71.057	61.284
72.003	61.305
73.003	62.594
74.003	67.893
75.003	59.094
76.062	61.998
77.075	62.284
78.065	64.135
79.003	59.269
80.003	67.393
81.003	7.999
