Time [s]	Current [nA]
0.000	45.636
1.056	59.748
2.057	64.929
3.064	66.528
3.999	60.850
4.999	63.594
6.000	61.894
7.000	61.994
8.000	63.794
9.000	58.994
10.058	59.446
11.055	61.579
12.062	67.421
13.000	62.147
14.000	56.894
15.000	65.493
16.001	63.594
17.001	61.694
18.058	58.556
19.000	68.889
20.062	62.329
21.000	59.802
22.000	62.494
23.055	58.383
24.065	63.261
25.000	60.850
26.001	64.894
27.058	58.840
28.001	64.893
29.001	51.995
30.001	21.098
31.001	27.297
32.001	40.896
33.001	49.395
34.056	51.464
35.001	61.899
36.001	59.654
37.001	64.894
38.001	63.394
39.058	58.556
40.001	65.529
41.001	64.594
42.001	58.794
43.076	64.366
44.059	56.759
45.058	61.317
46.059	61.233
47.059	63.594
48.002	61.924
49.002	62.494
50.002	60.994
51.002	61.194
52.062	59.522
53.002	60.951
54.001	61.255
55.064	58.845
56.064	60.594
57.064	61.494
58.002	62.254
59.061	60.617
60.060	63.157
61.054	60.960
62.058	60.751
63.064	63.612
64.002	58.949
65.002	63.494
66.003	56.994
67.003	60.594
68.003	65.593
69.065	60.540
70.003	61.081
71.002	56.451
72.056	62.043
73.058	60.673
74.074	63.379
75.002	59.908
76.003	58.594
77.063	63.862
78.003	59.037
79.059	63.346
80.003	61.858
81.062	60.428
82.057	62.808
83.107	27.426
