Time [s]	Current [nA]
0.000	14.549
0.999	53.648
2.057	50.468
3.065	50.987
3.999	50.959
5.057	53.259
6.057	50.795
7.055	48.793
8.000	55.867
9.000	47.095
10.000	50.995
11.000	55.594
12.000	48.595
13.000	52.195
14.059	49.004
15.000	50.048
16.001	55.494
17.056	48.621
18.000	51.372
19.000	53.595
20.000	47.195
21.000	51.095
22.000	51.695
23.000	52.295
24.000	52.595
25.000	49.195
26.001	51.795
27.001	51.395
28.001	55.494
29.001	48.695
30.001	53.595
31.001	47.395
32.001	51.195
33.001	55.094
34.001	46.195
35.000	53.148
36.001	53.495
37.001	47.595
38.001	50.895
39.001	55.794
40.001	48.895
41.001	53.695
42.001	46.795
43.001	50.995
44.001	31.397
45.001	16.098
46.002	23.498
47.002	36.296
48.002	39.996
49.002	45.595
50.002	50.895
51.002	54.295
52.002	54.895
53.001	52.147
54.001	48.895
55.001	51.495
56.002	51.495
57.002	53.895
58.002	54.095
59.002	48.095
60.002	51.795
61.002	56.094
62.002	49.695
63.002	53.395
64.002	51.695
65.002	47.495
66.069	52.809
67.003	50.851
68.003	53.895
69.003	54.195
70.002	48.143
71.002	56.594
72.002	51.795
73.002	48.995
74.002	52.295
75.002	49.795
76.003	51.995
77.003	55.894
78.061	48.577
79.003	52.012
80.003	53.695
81.003	47.095
82.003	51.695
83.003	56.094
84.003	47.095
85.003	53.495
86.004	53.295
87.004	47.795
88.003	51.246
89.003	51.095
90.003	52.695
91.003	53.495
92.065	48.489
93.003	49.036
94.003	54.695
95.003	46.395
96.004	53.195
97.004	53.295
98.004	47.595
99.060	52.457
100.004	11.122
