Time [s]	Current [nA]
0.000	38.532
1.000	52.795
1.999	54.449
2.999	50.795
3.999	52.895
5.056	50.563
6.055	53.048
7.000	55.762
8.000	55.194
9.000	50.295
10.000	53.695
11.000	52.595
12.000	52.795
13.000	55.094
14.000	49.795
15.001	54.195
16.001	53.395
17.001	52.695
18.001	52.495
19.000	55.350
20.000	50.495
21.000	53.595
22.000	52.795
23.000	52.995
24.000	50.395
25.000	52.595
26.001	55.694
27.001	52.795
28.001	52.795
29.001	52.795
30.001	35.296
31.001	13.699
32.058	23.271
33.055	35.904
34.001	47.247
35.002	49.495
36.002	49.895
37.001	56.451
38.001	54.395
39.001	53.395
40.001	53.495
41.060	52.686
42.001	53.980
43.001	53.995
44.001	52.595
45.001	52.595
46.002	52.395
47.002	51.295
48.002	54.795
49.057	50.327
50.002	55.550
51.002	52.895
52.002	55.394
53.002	50.595
54.001	53.248
55.001	53.295
56.002	52.595
57.002	52.495
58.061	52.308
59.002	53.661
60.002	52.795
61.002	52.595
62.002	52.095
63.002	54.395
64.002	47.995
65.067	56.009
66.003	51.170
67.062	50.325
68.003	55.680
69.003	54.295
70.003	49.995
71.061	50.846
72.002	55.361
73.002	51.895
74.002	54.495
75.100	49.129
76.003	55.365
77.003	52.895
78.003	52.795
79.062	49.759
80.003	53.023
81.003	54.395
82.003	48.195
83.003	51.995
84.003	51.895
85.003	52.495
86.004	53.295
87.004	54.095
88.004	47.995
89.003	52.147
90.003	52.095
91.065	55.456
92.003	51.381
93.003	47.895
94.003	51.595
95.003	52.195
96.004	52.595
97.004	22.398
