Time [s]	Current [nA]
0.000	13.529
1.000	50.195
1.999	50.345
2.999	49.695
3.999	47.295
5.000	52.195
6.000	50.295
7.000	49.795
8.000	46.495
9.000	51.995
10.000	47.195
11.000	50.195
12.000	50.295
13.000	49.295
14.057	47.394
15.001	50.578
16.001	52.095
17.058	47.583
18.001	52.911
19.000	49.445
20.000	46.995
21.000	50.995
22.000	51.095
23.000	50.395
24.000	49.595
25.059	46.687
26.001	49.995
27.001	52.095
28.001	45.395
29.001	49.795
30.001	49.395
31.001	51.595
32.086	46.355
33.062	52.351
34.001	47.493
35.002	49.295
36.064	50.937
37.001	49.942
38.001	46.995
39.001	49.895
40.001	49.695
41.001	49.695
42.001	49.595
43.062	48.440
44.001	49.729
45.002	49.195
46.002	48.795
47.002	48.795
48.002	50.495
49.002	46.695
50.002	49.295
51.063	50.608
52.002	47.493
53.002	49.095
54.001	51.646
55.062	48.297
56.002	47.229
57.002	48.895
58.002	48.395
59.002	51.395
60.002	46.395
61.002	49.195
62.002	49.295
63.002	49.295
64.068	50.276
65.003	49.460
66.003	46.095
67.003	49.395
68.070	50.885
69.003	47.584
70.061	48.388
71.090	49.849
72.002	48.789
73.002	49.495
74.002	48.595
75.002	49.095
76.003	45.895
77.003	50.695
78.003	49.495
79.003	49.695
80.003	46.195
81.003	51.295
82.003	49.795
83.003	46.995
84.003	49.295
85.069	50.793
86.004	47.268
87.004	50.395
88.004	46.995
89.003	49.945
90.003	49.295
91.003	49.495
92.003	49.695
93.003	46.095
94.003	51.195
95.003	50.195
96.004	49.295
97.004	48.895
98.070	48.494
99.004	49.031
100.004	49.895
101.004	49.195
102.004	18.698
