Time [s]	Current [nA]
0.000	19.859
1.000	59.194
2.000	63.894
3.000	56.794
3.999	60.454
5.000	60.094
6.000	60.294
7.062	65.059
8.000	60.548
9.000	56.294
10.000	60.194
11.000	65.993
12.000	57.994
13.000	62.794
14.069	56.963
15.001	59.070
16.001	65.094
17.001	60.094
18.001	56.694
19.001	62.494
20.001	55.594
21.001	59.494
22.000	65.159
23.000	57.094
24.000	62.994
25.086	55.110
26.001	59.994
27.001	64.993
28.001	60.094
29.001	57.194
30.001	63.494
31.001	55.794
32.001	64.994
33.001	60.194
34.001	56.994
35.002	62.194
36.002	61.494
37.002	56.094
38.064	62.235
39.001	58.052
40.059	59.068
41.001	66.129
42.062	58.524
43.001	57.289
44.061	61.881
45.001	57.867
46.002	60.694
47.002	57.494
48.002	60.094
49.002	59.594
50.002	59.494
51.002	62.194
52.063	58.618
53.002	58.461
54.002	58.994
55.003	59.094
56.003	58.694
57.002	63.157
58.002	61.094
59.002	34.197
60.002	19.598
61.002	34.197
62.002	40.696
63.002	52.295
64.002	49.495
65.002	59.494
66.003	61.394
67.003	61.194
68.003	62.794
69.003	57.594
70.003	61.294
71.003	60.294
72.003	59.694
73.003	62.094
74.002	56.651
75.002	61.394
76.003	61.894
77.003	60.694
78.003	60.894
79.003	57.394
80.003	62.194
81.003	54.995
82.003	64.794
83.003	60.094
84.003	56.794
85.003	61.594
86.004	0.700
