Time [s]	Current [nA]
0.000	28.400
1.000	34.800
2.000	37.400
3.061	39.020
4.056	33.869
5.000	40.996
6.000	35.600
7.000	38.700
8.000	37.800
9.000	37.500
10.000	38.400
11.000	35.100
12.000	39.000
13.000	37.400
14.000	37.700
15.000	38.000
15.999	35.936
16.999	39.200
17.999	38.700
18.999	37.600
19.999	37.700
20.999	37.800
21.999	36.400
22.999	39.500
24.057	35.917
25.056	37.838
25.999	40.085
26.999	38.900
27.999	35.600
28.999	37.700
30.060	35.533
30.999	39.084
32.056	34.532
32.999	40.615
33.998	35.335
34.998	37.200
35.998	36.800
36.998	36.900
38.060	36.535
38.998	37.207
39.998	38.000
40.998	37.700
41.998	37.000
42.998	37.300
43.998	38.200
44.998	35.000
45.998	37.500
46.998	36.500
48.063	34.272
48.998	37.647
49.998	36.400
50.997	38.739
52.058	34.778
52.997	38.232
54.052	34.408
55.047	37.688
56.059	38.142
56.997	36.034
57.997	37.000
58.997	37.200
59.997	38.500
60.997	34.700
61.997	38.600
62.997	37.200
63.997	36.900
64.997	37.000
66.065	26.124
67.057	8.569
67.997	15.532
68.996	21.321
69.996	28.600
70.996	33.100
71.996	35.200
72.996	40.000
73.996	38.700
74.996	38.400
75.996	37.900
76.996	39.800
77.996	36.600
78.996	38.800
79.996	38.900
80.996	37.900
81.996	37.500
83.004	39.187
83.996	36.694
84.996	38.500
85.995	37.437
87.052	35.099
87.995	41.039
88.995	35.500
89.995	38.700
91.057	36.347
91.995	40.832
92.995	34.800
93.995	39.500
95.045	37.810
95.995	36.947
96.995	37.500
97.995	37.500
99.057	40.301
99.995	36.887
100.995	36.000
101.995	38.100
102.995	37.900
103.994	37.738
104.994	38.700
105.994	38.800
106.994	34.900
107.994	37.500
109.103	19.116
