Time [s]	Current [nA]
0.000	8.793
1.061	41.847
2.000	43.024
3.000	43.700
4.065	44.413
5.000	41.604
6.000	43.400
7.000	45.200
8.000	41.300
9.000	44.700
10.000	43.200
10.999	43.443
11.999	45.200
12.999	42.000
13.999	44.100
15.063	45.395
15.999	42.308
16.999	43.900
17.999	46.200
18.999	41.500
20.064	45.822
20.999	42.781
21.999	44.000
22.999	45.800
24.062	43.368
24.999	43.116
25.999	44.600
27.059	45.377
28.059	44.500
28.998	44.089
29.998	46.000
30.998	40.900
31.998	43.400
32.998	43.900
33.998	46.000
35.090	42.216
35.998	46.145
36.998	44.600
37.998	44.700
39.063	46.385
39.998	45.348
40.998	42.200
41.998	45.300
42.998	44.600
43.998	44.800
45.077	47.822
45.997	44.130
46.997	42.600
47.997	45.000
48.997	44.500
50.061	46.241
50.997	45.085
51.997	42.300
52.997	45.400
53.997	44.800
54.997	44.900
55.997	44.700
56.997	46.700
57.997	42.600
58.997	44.600
59.997	44.300
60.997	44.400
61.997	45.800
62.996	42.543
63.996	45.000
64.996	45.000
65.996	44.400
67.056	46.132
67.996	44.894
68.996	46.400
70.061	43.099
70.996	42.995
71.996	44.000
72.996	45.700
74.003	45.382
74.996	41.088
75.996	44.900
76.996	44.300
77.996	44.300
78.996	46.100
79.996	46.200
81.060	43.045
81.995	42.353
82.995	43.900
83.995	45.500
84.995	45.000
85.995	41.300
87.061	45.497
88.055	44.064
88.995	42.660
89.995	45.700
90.995	9.400
