Time [s]	Current [nA]
0.000	43.496
1.000	58.194
2.000	59.794
3.000	54.495
4.000	57.594
5.001	57.094
6.001	55.894
7.001	59.094
8.001	59.694
9.062	54.848
10.000	54.792
11.000	56.094
12.000	61.394
13.061	55.791
14.000	56.118
15.001	52.495
16.058	58.083
17.001	53.865
18.001	57.294
19.001	57.494
20.001	50.195
21.001	55.594
22.001	54.994
23.001	54.895
24.001	57.994
25.002	39.196
26.002	16.498
27.001	26.324
28.001	36.096
29.001	44.696
30.001	48.195
31.001	54.295
32.001	50.395
33.001	55.194
34.060	57.407
35.002	55.042
36.002	57.594
37.002	49.995
38.002	53.695
39.002	52.195
40.002	53.795
41.002	53.595
42.060	52.547
43.002	52.436
44.061	53.725
45.001	52.016
46.002	53.995
47.061	50.609
48.002	50.686
49.002	51.595
50.002	50.695
51.002	50.195
52.002	52.995
53.002	52.995
54.002	47.395
55.002	50.295
56.003	55.494
57.003	48.395
58.003	52.395
59.010	51.435
60.003	46.722
61.003	54.795
62.002	46.342
63.002	52.595
64.002	52.395
65.002	46.695
66.003	55.894
67.003	46.095
68.003	52.695
69.003	52.195
70.003	45.995
71.003	51.895
72.003	50.895
73.061	48.105
74.003	55.302
75.066	49.807
76.004	47.970
77.004	49.695
78.067	51.453
79.004	50.689
80.003	46.842
81.003	53.795
82.003	50.995
83.003	50.795
84.059	47.628
85.003	55.821
86.004	47.695
87.060	48.101
88.004	53.596
89.004	49.895
90.004	46.595
91.004	50.395
92.004	53.295
93.004	52.395
94.004	50.795
95.004	50.295
96.005	52.795
97.004	0.400
