Time [s]	Current [nA]
0.000	17.994
1.000	60.894
2.075	54.785
3.000	59.454
4.000	59.394
5.001	58.194
6.001	52.695
7.001	60.294
8.001	37.096
9.001	23.898
10.001	35.396
11.001	44.196
12.001	50.495
13.001	55.294
14.001	53.595
15.001	58.553
16.001	57.694
17.001	63.294
18.001	55.494
19.001	59.594
20.001	53.095
21.001	58.794
22.001	56.994
23.001	57.194
24.001	59.294
25.002	54.395
26.064	60.163
27.002	54.366
28.002	56.894
29.002	60.294
30.002	54.995
31.002	58.594
32.001	59.353
33.001	58.494
34.067	54.873
35.002	57.382
36.057	55.539
37.002	55.867
38.002	56.594
39.002	56.594
40.002	58.594
41.002	59.294
42.002	59.194
43.002	52.995
44.002	57.694
45.003	57.394
46.003	59.194
47.003	58.094
48.003	52.295
49.057	58.438
50.002	60.311
51.002	54.395
52.084	62.009
53.002	53.698
54.002	59.794
55.003	58.794
56.060	60.448
57.003	59.273
58.061	57.650
59.065	59.855
60.063	58.812
61.003	56.696
62.003	58.694
63.003	60.894
64.003	54.795
65.003	59.394
66.004	58.494
67.003	58.152
68.003	60.894
69.003	59.794
70.079	55.292
71.003	58.436
72.003	57.594
73.061	59.351
74.003	58.168
75.003	60.394
76.004	53.495
77.004	57.594
78.004	62.794
79.004	54.795
80.004	60.694
81.004	58.794
82.066	56.209
83.004	55.858
84.004	58.294
85.003	60.254
86.004	60.594
87.004	53.595
88.004	57.894
89.004	0.500
