Time [s]	Current [nA]
0.000	16.373
1.000	57.294
2.000	60.694
3.000	59.794
4.000	59.294
5.001	59.194
6.001	56.694
7.063	57.904
8.000	63.281
9.000	58.794
10.000	58.894
11.000	55.794
12.000	61.994
13.009	58.963
14.000	54.788
15.066	60.182
16.001	56.893
17.001	61.494
18.058	58.083
19.001	56.940
20.001	59.294
21.001	58.994
22.001	61.194
23.001	53.995
24.067	62.189
25.000	57.015
26.001	57.594
27.001	57.694
28.007	60.133
29.001	54.622
30.001	57.994
31.001	57.394
32.001	56.294
33.001	58.894
34.093	53.291
35.067	61.453
36.002	55.396
37.002	60.394
38.002	61.594
39.002	63.594
40.002	58.594
41.002	61.494
42.001	60.555
43.001	60.494
44.001	61.494
45.001	62.294
46.002	56.794
47.002	62.094
48.002	60.294
49.002	59.994
50.002	56.894
51.002	62.294
52.002	60.894
53.058	56.434
54.061	59.216
55.003	63.543
56.003	58.494
57.062	59.106
58.013	64.347
59.003	54.742
60.002	59.954
61.059	58.745
62.062	61.808
63.068	60.133
64.002	58.238
65.068	61.496
66.003	57.534
67.061	58.406
68.003	59.442
69.003	60.994
70.003	59.294
71.068	60.839
72.003	59.566
73.087	56.544
74.003	59.928
75.065	62.482
76.004	56.970
77.059	56.487
78.065	61.823
79.066	62.531
80.003	57.305
81.003	59.094
82.003	59.094
83.064	58.618
84.003	57.289
85.057	18.991
