Time [s]	Current [nA]
0.000	47.495
1.000	57.694
2.000	57.194
3.000	52.595
3.999	58.953
4.999	56.094
6.000	55.294
7.000	55.594
8.000	57.394
9.000	52.795
10.000	56.594
11.000	54.495
12.000	54.795
13.000	54.595
14.000	52.495
15.000	56.794
16.001	54.495
17.001	54.495
18.001	55.094
19.001	57.194
20.001	52.295
21.001	54.895
22.062	52.492
23.000	57.350
24.000	53.095
25.000	51.395
26.001	55.594
27.001	54.795
28.001	53.595
29.001	54.295
30.001	56.594
31.001	50.695
32.001	55.994
33.001	54.095
34.001	53.795
35.001	53.595
36.002	50.895
37.002	55.894
38.002	55.294
39.053	51.470
40.001	57.167
41.063	52.537
42.001	51.701
43.057	52.836
44.056	52.247
45.054	52.954
46.002	55.163
47.002	54.495
48.002	49.895
49.002	54.095
50.002	52.495
51.056	49.521
52.093	51.007
53.002	59.290
54.057	46.630
55.060	52.190
56.003	55.244
57.002	51.646
58.002	54.195
59.068	51.590
60.002	51.815
61.002	52.695
62.060	50.184
63.002	56.682
64.002	50.495
65.002	54.695
66.060	50.042
67.003	55.138
68.003	52.595
69.003	55.594
70.003	50.695
71.003	54.195
72.062	50.137
73.003	56.849
74.002	53.748
75.002	50.995
76.003	56.794
77.003	54.895
78.003	53.495
79.003	53.795
80.003	55.095
81.003	50.195
82.003	53.495
83.003	53.295
84.003	53.495
85.062	50.657
86.010	58.538
87.004	51.705
88.004	54.695
89.004	52.795
90.004	53.695
91.004	60.294
92.003	54.149
93.003	0.700
