Time [s]	Current [nA]
0.000	0.460
1.000	1.600
2.017	1.180
3.000	1.119
4.000	1.200
5.065	1.034
6.000	0.962
7.066	0.938
8.000	0.856
9.000	0.800
10.000	0.900
11.000	0.800
12.000	0.900
13.000	0.900
14.000	0.800
15.001	0.700
16.001	0.800
17.001	0.700
18.060	0.661
19.063	0.698
20.001	0.746
21.001	0.600
22.000	0.901
23.000	1.000
24.000	0.900
25.067	0.938
26.071	1.096
27.001	0.968
28.062	0.754
29.001	0.958
30.073	0.653
31.001	1.077
32.001	1.300
33.001	1.400
34.060	1.322
35.002	1.169
36.002	1.400
37.002	1.200
38.062	1.415
39.066	1.295
40.001	1.283
41.001	1.200
42.001	1.300
43.001	1.200
44.067	1.501
45.068	1.300
46.002	1.178
47.002	1.400
48.002	1.100
50.002	22.498
51.002	58.194
52.064	62.611
53.002	60.229
54.002	40.496
55.002	21.798
56.003	30.997
57.059	38.538
58.002	54.183
59.002	46.895
60.002	61.394
61.059	57.705
62.056	60.175
63.002	62.679
64.002	57.394
65.002	63.594
66.003	63.394
67.003	62.394
68.058	58.857
69.003	66.977
70.003	57.994
71.003	63.794
72.003	62.794
73.003	61.094
74.060	57.421
75.002	67.615
76.065	60.823
77.059	56.634
78.003	64.612
79.003	60.594
80.003	61.094
81.062	60.145
82.003	60.887
83.003	61.494
84.003	60.594
85.055	57.178
86.059	62.743
87.004	60.523
88.004	60.794
89.004	60.194
90.004	60.094
91.004	59.994
92.003	63.557
93.003	57.094
94.058	58.098
95.058	60.054
96.004	63.207
97.063	59.579
98.077	63.011
99.004	58.570
100.004	61.594
101.004	59.894
102.004	59.994
103.004	63.294
104.004	56.594
105.060	58.098
106.061	59.934
107.005	63.341
108.005	62.694
109.084	56.621
110.068	63.408
111.004	58.968
112.004	59.494
113.063	56.840
114.004	60.249
115.004	61.494
116.005	61.194
117.005	60.294
118.005	60.394
119.005	61.494
120.005	56.594
121.005	62.094
122.005	60.294
123.005	59.494
124.005	59.694
125.062	58.896
126.006	60.587
127.061	57.814
128.059	59.814
129.005	63.630
130.005	58.994
131.066	60.126
132.005	60.164
133.005	60.594
134.129	34.961
