Time [s]	Current [nA]
0.000	49.516
1.000	59.494
2.056	61.357
3.000	66.307
4.000	62.694
5.060	58.445
6.001	65.881
7.001	58.594
8.001	63.094
9.001	61.994
10.001	60.894
11.056	57.435
12.000	60.587
13.000	62.694
14.000	61.694
15.000	56.794
16.001	61.294
17.066	62.905
18.001	60.636
19.001	57.294
20.001	61.294
21.001	61.194
22.001	61.494
23.062	59.089
24.079	60.466
25.064	65.339
26.002	58.843
27.059	57.705
28.061	60.074
29.001	61.058
30.001	62.794
31.001	60.994
32.001	60.594
33.001	61.194
34.088	56.480
35.001	61.768
36.002	62.394
37.002	60.694
38.002	60.294
39.058	57.570
40.002	60.058
41.061	59.106
42.002	59.186
43.002	60.294
44.002	59.594
45.002	60.494
46.003	62.894
47.002	57.452
48.002	60.494
49.002	59.894
50.002	60.594
51.002	61.394
52.002	56.794
53.002	59.994
54.002	60.594
55.002	60.294
56.068	62.060
57.003	60.208
58.003	57.894
59.003	60.894
60.003	60.494
61.003	60.194
62.003	62.894
63.003	55.094
64.002	61.956
65.002	60.794
66.059	57.949
67.003	63.871
68.003	58.194
69.061	59.068
70.065	62.046
71.003	65.025
72.003	61.294
73.003	57.194
74.003	60.094
75.003	64.194
76.004	56.094
77.069	62.717
78.069	60.394
79.004	60.208
80.062	58.973
81.004	59.230
82.003	60.154
83.056	0.380
