Time [s]	Current [nA]
0.000	36.036
1.000	46.200
2.003	44.865
3.000	40.522
4.000	43.100
5.000	43.400
6.000	45.400
7.000	45.400
8.072	41.138
9.000	43.103
10.000	43.900
11.000	43.200
12.000	44.900
13.000	45.400
14.000	39.900
15.000	47.000
16.000	43.300
16.999	40.841
17.999	45.800
19.000	43.157
19.999	39.740
20.999	43.000
21.999	46.800
22.999	40.900
23.999	45.400
25.056	40.776
25.999	41.357
26.999	46.400
27.999	41.100
28.999	44.400
29.999	40.300
31.056	44.371
31.999	41.145
32.999	46.700
33.999	40.800
34.998	45.145
36.058	40.283
37.055	42.528
37.998	40.933
38.998	43.400
39.998	44.000
40.998	41.200
42.059	44.392
42.998	41.534
43.998	42.600
44.998	44.200
45.998	40.500
47.058	45.094
48.059	42.657
48.998	41.534
49.998	42.600
50.998	45.100
51.997	44.044
53.054	40.776
53.997	40.721
55.056	43.532
55.997	42.933
56.997	44.200
57.997	38.700
59.056	44.098
60.054	41.784
60.997	44.539
61.997	39.900
62.997	44.400
63.997	39.300
64.997	42.500
65.997	46.100
66.997	39.700
67.997	44.400
68.997	42.000
70.056	40.132
71.052	42.169
72.056	41.534
72.996	41.702
73.996	40.400
74.996	42.600
75.996	41.800
77.059	42.992
77.996	42.369
78.996	43.100
79.996	39.400
80.996	42.100
81.996	41.700
82.996	42.000
83.996	43.200
84.996	44.200
86.058	40.113
86.995	40.448
88.051	43.087
88.995	41.102
89.995	43.600
91.002	43.496
91.995	39.678
92.995	41.900
93.995	41.700
94.995	43.800
95.995	43.500
96.995	38.800
97.995	41.800
98.995	45.200
100.115	38.304
100.995	44.773
101.995	44.100
102.995	38.800
103.995	45.400
104.994	42.142
106.055	42.036
106.994	42.386
107.994	38.500
108.994	42.600
109.994	42.100
110.994	41.800
111.994	43.400
112.994	43.300
113.994	38.300
114.994	44.700
116.056	38.983
117.193	24.099
