Time [s]	Current [nA]
0.000	10.495
1.000	46.700
2.000	47.400
3.000	41.900
4.000	46.500
5.000	45.000
6.000	45.700
7.000	47.500
8.000	43.300
9.000	45.800
9.999	45.445
10.999	46.000
11.999	47.600
12.999	46.900
14.003	47.410
14.999	42.871
15.999	46.400
16.999	46.500
17.999	48.300
18.999	47.400
19.999	43.100
20.999	46.600
21.999	46.600
22.999	47.600
23.999	47.600
24.999	44.500
25.999	46.700
26.999	46.100
27.998	45.946
28.998	48.300
29.998	43.700
31.064	48.874
31.998	44.647
32.998	46.000
33.998	46.000
34.998	48.500
35.998	47.900
36.998	42.900
37.998	45.800
38.998	46.400
39.998	49.000
40.998	48.400
41.998	43.100
42.998	46.800
43.998	46.200
44.997	26.426
46.049	13.308
46.997	21.308
47.997	29.700
48.997	35.400
49.997	39.400
50.997	48.600
52.074	46.054
52.997	48.212
54.058	49.764
54.997	45.580
55.997	47.300
56.997	49.100
57.997	49.400
58.997	42.900
59.997	46.200
60.997	46.700
62.052	46.256
63.071	45.927
63.996	48.108
64.996	46.800
65.996	46.200
66.996	46.400
67.996	48.000
68.996	48.700
69.996	42.500
70.996	47.200
72.056	47.453
72.996	45.000
73.996	48.200
74.996	47.800
75.996	42.300
76.996	45.700
77.996	45.700
78.996	47.200
80.054	44.518
80.995	44.527
81.995	45.400
82.995	45.800
83.995	45.400
84.995	47.500
85.995	42.600
86.995	45.500
87.995	44.800
88.995	44.800
89.995	46.500
90.995	46.800
92.080	42.028
92.995	45.246
93.995	44.400
94.995	44.400
95.995	46.400
97.053	43.951
97.994	43.571
98.994	44.100
99.994	43.700
100.994	45.600
101.994	45.800
102.994	44.300
104.052	42.060
104.994	41.826
106.052	45.274
106.994	44.374
107.994	45.500
109.056	42.185
109.994	42.324
110.994	43.800
111.994	16.600
