Time [s]	Current [nA]
0.000	0.676
1.000	47.700
2.000	49.600
3.074	45.717
4.000	50.324
5.000	48.600
6.000	47.500
7.000	47.700
8.000	49.400
9.000	50.400
10.000	44.700
10.999	48.448
11.999	48.100
12.999	48.400
13.999	50.700
14.999	49.500
15.999	44.400
16.999	47.500
17.999	47.800
19.062	51.646
20.058	45.382
20.999	47.078
22.056	50.615
22.999	46.023
23.999	48.000
24.999	49.800
25.999	50.000
26.999	44.500
27.998	47.548
28.998	51.400
29.998	45.300
30.998	49.900
32.083	44.516
32.998	48.415
33.998	47.400
34.998	51.300
35.998	45.800
36.998	49.900
37.998	44.100
38.998	47.800
40.056	48.677
40.998	48.089
41.998	49.100
42.998	49.200
43.998	44.100
44.998	51.800
45.997	47.447
46.997	45.600
47.997	49.900
48.997	43.700
49.997	47.600
50.997	46.700
51.997	48.600
52.997	47.600
53.997	45.200
55.063	47.936
55.997	45.182
56.997	46.500
57.997	48.400
58.997	48.900
59.997	42.600
60.997	46.100
61.997	50.800
62.996	42.843
63.996	49.300
64.996	48.200
65.996	43.000
66.996	46.700
67.996	46.600
68.996	48.000
69.996	48.300
70.996	42.400
71.996	46.800
72.996	46.100
73.996	46.300
74.996	48.500
75.996	48.100
76.996	43.300
77.996	46.600
78.996	50.400
79.996	44.400
80.995	48.849
82.071	43.401
82.995	46.212
83.995	46.000
84.995	46.200
85.995	48.600
86.995	48.300
87.995	42.700
88.995	46.200
89.995	50.600
90.995	44.300
91.995	47.500
92.995	48.200
93.995	42.700
94.995	46.500
95.995	46.800
96.995	48.000
97.994	48.749
98.994	42.900
99.994	46.500
100.994	47.000
101.994	47.900
102.994	47.300
103.994	45.100
104.994	46.700
106.134	36.754
