Time [s]	Current [nA]
0.000	18.580
1.000	43.300
2.000	39.600
2.999	42.142
3.999	42.900
4.999	42.200
5.999	42.300
6.999	40.300
7.999	43.400
8.999	42.400
9.999	42.000
10.999	42.000
11.999	40.100
12.999	43.400
13.999	38.900
14.999	42.100
15.999	41.600
17.060	42.790
17.999	42.705
18.999	43.700
19.998	38.739
20.998	41.500
21.998	41.700
22.998	43.300
23.998	42.800
25.055	41.533
25.998	41.145
26.998	45.800
27.998	42.100
28.998	40.300
29.998	44.000
30.998	38.800
31.998	42.500
32.998	42.300
33.998	42.600
34.998	43.600
36.060	41.620
36.998	41.898
37.997	42.042
38.997	42.000
39.997	43.800
40.997	44.000
41.997	38.800
42.997	41.800
43.997	41.900
44.997	42.000
46.055	42.155
46.997	46.285
47.997	38.600
48.997	41.800
49.997	45.700
50.997	40.000
51.997	44.000
52.997	38.600
53.997	42.800
54.996	41.742
55.996	41.900
56.996	43.200
58.055	41.360
58.996	40.701
59.996	42.000
60.996	14.400
61.996	14.100
62.996	22.700
63.996	26.800
65.056	34.717
65.996	36.489
66.996	41.900
67.996	44.100
68.996	44.400
69.996	38.900
70.996	41.700
71.996	41.600
72.995	43.644
73.995	42.600
74.995	40.000
75.995	42.600
76.995	42.000
77.995	42.500
78.995	44.200
79.995	40.500
80.995	42.900
81.995	41.800
82.995	45.400
83.995	38.700
84.995	43.700
85.995	43.500
86.995	38.400
87.995	41.600
88.995	41.900
89.994	44.044
90.994	43.600
91.994	38.100
92.994	41.700
94.059	43.380
94.994	41.497
95.994	44.400
97.052	41.588
97.994	41.614
98.994	42.400
99.994	42.100
100.994	43.900
101.994	44.700
102.994	38.800
103.994	42.900
104.994	41.800
105.994	42.300
106.994	44.500
107.993	43.844
108.993	38.700
109.993	41.500
110.993	41.500
112.047	41.176
112.993	45.877
114.054	40.905
114.993	40.682
115.993	41.900
116.993	42.100
117.993	43.600
118.993	44.500
119.993	39.000
121.069	35.781
