Time [s]	Current [nA]
0.000	44.796
1.000	57.194
2.000	56.094
3.000	58.394
4.000	52.295
5.000	55.994
6.062	59.278
7.001	54.627
8.001	57.594
9.000	58.553
10.000	53.995
11.000	55.494
12.000	55.494
13.000	56.294
14.062	60.540
15.069	53.275
16.001	56.003
17.001	56.894
18.001	56.294
19.001	56.394
20.001	58.494
21.001	57.694
22.061	53.768
23.001	53.824
24.059	58.312
25.064	58.958
26.001	54.637
27.057	57.097
28.001	55.185
29.001	56.194
30.001	55.594
31.001	56.994
32.060	54.952
33.001	55.149
34.001	55.594
35.001	60.294
36.109	52.027
37.002	57.553
38.061	54.385
39.009	58.960
40.002	50.247
41.002	54.395
42.064	57.433
43.002	54.046
44.001	49.144
45.001	53.295
46.002	54.195
47.099	53.869
48.057	53.857
49.058	56.638
50.002	52.431
51.057	55.634
52.002	57.349
53.002	51.495
54.002	55.594
55.002	49.295
56.003	52.895
57.003	51.895
58.065	55.456
59.003	54.472
60.003	54.595
61.002	49.745
62.065	54.181
63.002	51.222
64.002	53.895
65.002	54.994
66.003	52.995
67.003	49.195
68.003	57.394
69.057	51.133
70.003	53.906
71.003	55.094
72.003	48.395
73.056	53.366
74.003	55.010
75.003	50.195
76.083	50.597
77.057	55.847
78.061	52.784
79.003	55.727
80.003	48.495
81.003	53.995
82.003	55.394
83.003	49.895
84.003	53.195
85.003	52.695
86.004	52.995
87.004	53.395
88.004	51.895
89.004	53.495
90.004	52.895
91.004	48.595
