Time [s]	Current [nA]
0.000	16.944
1.000	58.694
2.054	54.359
3.062	57.931
4.000	54.899
5.000	55.694
6.063	52.631
7.001	56.498
8.001	56.794
9.001	58.594
10.001	57.194
11.001	56.194
12.059	54.342
13.050	52.669
14.000	60.731
15.000	51.395
16.001	55.394
17.001	55.494
18.001	57.294
19.001	57.294
20.001	52.895
21.001	56.694
22.001	56.094
23.001	56.194
24.056	55.729
25.061	58.261
26.060	56.851
27.059	55.750
28.002	53.441
29.002	55.394
30.001	59.153
31.001	57.694
32.063	54.514
33.001	53.300
34.062	56.639
35.057	52.208
36.002	54.598
37.002	55.494
38.002	55.694
39.002	54.495
40.002	55.994
41.002	57.294
42.063	54.189
43.002	53.669
44.002	54.795
45.002	54.195
46.003	57.294
47.002	52.347
48.002	54.895
49.002	55.494
50.002	54.695
51.002	54.795
52.002	57.294
53.002	52.995
54.002	56.694
55.002	53.895
56.003	54.395
57.060	53.921
58.090	54.363
59.061	58.594
60.064	56.425
61.003	52.923
62.003	54.295
63.057	54.264
64.002	59.782
65.002	50.795
66.003	55.194
67.003	53.895
68.003	55.894
69.003	56.894
70.069	54.310
71.003	53.528
72.003	55.094
73.003	55.294
74.003	57.294
75.066	55.550
76.004	53.726
77.004	55.594
78.065	56.451
79.004	52.817
80.004	58.594
81.004	53.395
82.069	57.741
83.003	53.421
84.003	54.295
85.058	52.936
86.004	60.459
87.080	51.946
88.004	54.432
89.004	55.494
90.004	56.094
91.004	0.400
