Time [s]	Current [nA]
0.000	59.594
1.000	62.994
2.058	59.351
3.000	62.945
4.060	66.125
5.000	59.738
6.000	61.694
7.000	62.594
8.000	58.194
9.000	62.694
10.000	64.894
11.000	61.594
12.000	61.694
13.000	60.894
14.059	58.634
15.001	60.355
16.059	58.501
17.058	59.954
18.001	63.620
19.081	55.735
20.001	61.081
21.000	62.256
22.058	56.516
23.000	62.945
24.057	54.961
25.061	60.712
26.055	56.534
27.001	61.410
28.001	58.594
29.001	57.794
30.001	57.994
31.001	55.694
32.001	59.694
33.001	57.494
34.058	54.205
35.002	60.439
36.002	58.194
37.070	56.642
38.002	54.501
39.001	57.151
40.001	56.294
41.001	56.094
42.001	53.495
43.001	58.094
44.001	56.494
45.001	56.194
46.002	54.994
47.002	56.894
48.002	50.195
49.060	54.248
50.059	54.849
51.002	58.637
52.059	52.313
53.002	55.032
54.002	56.694
55.003	55.394
56.059	51.605
57.002	59.485
58.002	50.595
59.002	56.894
60.002	55.294
61.002	53.395
62.002	52.895
63.002	54.395
64.002	51.395
65.002	55.095
66.066	50.418
67.003	56.024
68.003	52.695
69.101	54.002
70.062	50.775
71.003	53.130
72.003	53.795
73.061	50.940
74.002	56.636
75.002	50.095
76.003	54.795
77.003	53.595
78.003	52.195
79.003	51.895
80.003	51.795
81.003	50.095
82.003	53.195
83.003	52.295
84.003	50.895
85.003	51.095
86.004	52.895
87.004	48.095
88.114	34.771
