Time [s]	Current [nA]
0.000	23.307
1.000	52.495
2.000	55.794
3.058	50.184
4.000	55.515
5.000	52.595
6.000	51.747
7.062	58.092
8.000	53.513
9.000	54.895
10.000	55.694
11.000	57.094
12.000	52.895
13.000	56.194
14.000	55.594
15.000	55.194
16.001	56.094
17.001	52.095
18.058	53.826
19.001	58.213
20.001	55.394
21.058	52.029
22.001	61.288
23.062	55.508
24.000	53.939
25.000	56.394
26.001	55.294
27.001	55.294
28.001	53.895
29.001	58.194
30.058	52.029
31.001	58.213
32.001	54.994
33.001	52.595
34.001	56.694
35.001	55.894
36.002	50.595
37.002	54.895
38.002	58.894
39.002	52.195
40.002	56.694
41.001	50.846
42.001	49.095
43.001	24.098
44.001	31.197
45.001	41.196
46.002	49.495
47.002	45.895
48.064	54.891
49.066	53.887
50.058	52.817
51.002	59.422
52.002	49.695
53.002	53.495
54.059	55.245
55.002	52.805
56.003	58.194
57.003	56.194
58.002	51.947
59.002	54.495
60.002	55.394
61.002	57.494
62.002	56.894
63.002	50.295
64.002	55.294
65.002	54.595
66.003	59.694
67.065	55.173
68.003	55.858
69.003	51.495
70.003	54.195
71.003	58.794
72.003	51.795
73.003	57.394
74.083	51.476
75.062	56.436
76.003	53.023
77.003	59.994
78.003	51.595
79.003	56.694
80.073	51.023
81.003	52.898
82.003	52.995
83.003	55.394
84.084	50.134
85.003	58.318
86.004	49.395
87.004	58.194
88.004	53.095
89.004	50.095
90.062	52.547
91.004	52.436
92.004	52.795
93.178	37.475
