Time [s]	Current [nA]
0.000	57.694
1.000	61.394
2.000	60.494
3.000	62.794
4.000	57.394
5.001	59.894
6.001	64.494
7.001	59.094
8.001	56.694
9.001	60.294
10.054	58.684
11.001	56.700
12.056	59.615
13.000	61.858
14.000	54.994
15.000	60.994
16.001	53.795
17.001	57.594
18.001	57.994
19.001	57.394
20.001	59.194
21.001	60.694
22.001	53.795
23.001	56.394
24.061	57.824
25.063	59.734
26.002	56.970
27.063	53.906
28.055	56.950
29.002	60.078
30.091	52.887
31.057	56.413
32.001	62.176
33.062	53.906
34.058	56.922
35.057	56.507
36.002	56.608
37.002	59.494
38.002	51.695
39.062	59.051
40.002	53.612
41.002	55.994
42.002	58.394
43.002	52.895
44.002	56.894
45.003	56.594
46.065	58.751
47.003	56.071
48.069	54.404
49.002	52.942
50.002	56.394
51.002	55.394
52.002	56.194
53.067	54.549
54.002	56.037
55.002	57.194
56.060	52.691
57.003	53.335
58.003	56.894
59.003	54.795
60.003	56.694
61.003	50.595
62.003	54.495
63.003	58.794
64.065	51.972
65.003	53.619
66.003	50.546
67.003	54.595
68.061	54.909
69.003	53.710
70.003	56.794
71.003	53.295
72.003	55.294
73.003	55.194
74.003	55.294
75.061	53.921
76.004	55.880
77.004	54.495
78.004	54.795
79.004	58.494
80.089	51.792
81.004	57.371
82.004	55.694
83.003	50.345
84.003	54.695
85.003	58.394
86.066	54.138
87.004	53.833
88.004	44.596
