Time [s]	Current [nA]
0.000	11.507
1.060	52.448
2.000	52.122
3.000	58.494
4.000	50.795
5.086	51.608
6.062	57.064
7.001	52.178
8.001	54.095
9.001	54.395
10.001	56.794
11.000	51.246
12.056	52.078
13.000	56.033
14.000	52.495
15.000	55.294
16.001	47.895
17.001	55.194
18.001	54.095
19.001	53.195
20.001	53.795
21.055	48.857
22.001	57.817
23.001	48.395
24.001	51.495
25.001	56.394
26.002	46.495
27.002	53.995
28.002	53.195
29.001	48.644
30.001	50.895
31.001	51.695
32.001	53.295
33.001	53.095
34.001	46.795
35.001	50.195
36.002	55.094
37.002	47.495
38.002	53.195
39.059	50.137
40.060	49.945
41.002	49.783
42.002	51.795
43.002	52.595
44.002	52.495
45.077	47.947
46.002	52.535
47.002	52.295
48.002	52.095
49.002	54.295
50.002	50.295
51.002	53.395
52.002	51.095
53.002	51.495
54.002	54.695
55.002	48.795
56.003	54.695
57.003	53.095
58.003	51.795
59.003	52.095
60.003	50.295
61.003	55.394
62.003	48.495
63.003	52.695
64.061	53.964
65.062	48.695
66.003	57.274
67.003	50.595
68.003	54.295
69.069	55.529
70.065	54.011
71.004	53.669
72.003	50.846
73.003	59.094
74.060	57.610
75.003	65.529
76.004	61.094
77.066	60.163
78.004	60.868
79.004	61.594
80.004	60.094
81.003	60.254
82.003	57.294
83.003	62.394
84.003	61.394
85.003	62.094
86.004	60.294
87.004	59.994
88.004	62.394
89.004	56.794
90.004	59.794
91.004	58.694
92.004	59.594
93.004	17.898
