Time [s]	Current [nA]
0.000	0.483
1.000	57.694
2.000	57.294
3.000	56.794
4.000	53.395
5.001	58.294
6.000	58.252
7.000	55.794
8.062	52.443
9.000	55.432
10.080	58.883
11.060	53.464
12.061	55.139
13.061	54.995
14.000	52.710
15.063	58.186
16.060	51.349
17.001	54.192
18.064	56.438
19.001	52.183
20.001	53.595
21.059	53.586
22.001	54.347
23.068	55.665
24.057	48.024
25.056	57.810
26.071	47.187
27.063	53.926
28.069	46.317
29.066	52.954
30.063	52.051
31.062	52.347
32.077	55.462
33.057	51.015
34.060	52.836
35.070	51.135
36.002	48.922
37.062	51.693
38.075	54.091
39.068	52.462
40.068	54.095
41.001	50.049
42.063	54.138
43.061	48.793
44.067	54.666
45.058	48.480
46.002	55.927
47.058	54.067
48.002	51.266
49.002	47.595
50.002	52.895
51.058	49.806
52.057	51.146
53.067	50.589
54.060	54.476
55.003	52.436
56.061	49.144
57.061	51.195
58.003	54.453
59.080	49.206
60.071	53.274
61.062	48.835
62.063	52.342
63.002	50.048
64.002	51.295
65.065	55.173
66.003	51.807
67.062	49.665
68.003	49.092
69.003	50.995
70.003	51.195
71.003	52.195
72.003	39.296
73.003	23.398
74.003	30.897
75.003	38.696
76.066	43.969
77.065	50.445
78.094	49.461
79.068	48.352
80.003	56.037
81.062	47.965
82.064	53.987
83.062	48.292
84.071	52.423
85.066	52.912
86.065	53.148
87.004	53.456
88.056	52.371
89.077	51.709
90.068	54.889
91.066	52.299
92.004	49.888
93.004	53.995
94.003	49.845
95.003	53.895
96.004	52.495
97.099	35.613
