Time [s]	Current [nA]
0.000	26.123
0.938	49.995
1.938	53.595
2.999	51.456
3.937	50.102
4.937	52.395
5.938	51.495
6.938	51.495
7.938	49.495
8.938	54.695
9.938	48.395
10.938	52.195
11.938	52.395
12.996	50.846
13.938	50.738
14.938	50.995
15.939	23.798
16.939	28.597
17.939	38.296
18.939	47.195
19.938	45.641
21.003	54.267
21.938	52.080
22.938	53.995
24.001	50.606
24.938	51.222
25.939	55.194
26.939	53.295
27.939	52.495
28.939	52.095
29.939	49.295
30.992	50.612
31.939	55.222
33.001	49.242
33.939	54.579
34.939	46.995
35.940	54.095
36.993	50.422
37.950	54.227
38.939	48.630
39.939	51.895
40.939	53.595
41.939	49.095
42.939	51.695
43.939	51.795
44.939	51.995
45.940	52.495
46.998	50.751
47.940	57.850
48.940	47.795
49.940	50.495
51.006	52.152
51.993	49.742
52.940	56.805
53.940	47.295
54.939	52.147
55.940	51.695
56.940	51.495
57.940	54.295
58.940	53.695
59.940	49.395
60.940	52.695
61.940	52.795
62.940	54.195
63.940	48.195
64.940	52.995
66.002	54.754
66.941	50.048
67.941	51.595
68.995	50.185
69.941	51.263
70.941	52.695
71.941	52.595
72.940	52.347
73.940	50.595
74.940	53.195
75.941	54.295
76.941	52.595
77.941	53.195
78.941	51.695
80.002	51.644
80.941	51.326
81.941	48.095
82.941	52.195
84.001	53.014
84.941	49.995
85.942	52.395
86.999	50.704
87.942	49.730
88.942	51.995
89.941	51.446
90.941	53.295
91.941	54.095
92.941	47.895
93.941	53.395
94.941	53.095
95.942	53.495
96.942	53.395
97.957	26.204
