Time [s]	Current [nA]
0.000	0.466
1.000	52.195
2.000	51.195
3.000	47.395
4.000	51.695
5.000	53.295
6.001	51.095
7.001	50.495
8.001	51.095
9.001	54.295
10.001	49.295
11.001	52.195
12.001	50.995
13.001	51.095
14.001	51.195
15.000	47.243
16.001	51.295
17.001	51.095
18.001	50.595
19.001	50.395
20.057	49.806
21.001	50.631
22.001	51.395
23.001	49.995
24.001	49.695
25.001	51.095
26.002	48.195
27.002	51.995
28.002	50.795
29.002	50.195
30.002	50.695
31.002	48.695
32.002	53.295
33.001	52.848
34.001	52.495
35.001	52.495
36.002	47.195
37.002	54.095
38.058	50.374
39.002	49.995
40.002	51.495
41.002	51.595
42.064	55.268
43.002	51.487
44.076	47.854
45.002	50.859
46.003	51.195
47.003	50.795
48.003	51.595
49.003	52.595
50.002	46.142
51.002	49.295
52.002	49.495
53.002	52.395
54.002	50.595
55.002	52.295
56.003	45.695
57.003	51.195
58.003	51.295
59.003	51.695
60.003	52.395
61.003	46.295
62.003	49.195
63.003	49.795
64.003	51.195
65.003	51.695
66.004	47.995
67.004	50.995
68.003	50.846
69.003	51.495
70.064	63.801
71.003	60.271
72.003	55.694
73.003	59.094
74.003	59.994
75.003	60.194
76.004	62.394
77.004	56.394
78.004	59.994
79.004	59.594
80.004	64.794
81.004	55.594
82.004	61.694
83.004	53.995
84.004	58.694
85.003	58.252
86.004	57.494
87.004	60.394
88.004	55.394
89.004	59.094
90.004	57.994
91.004	58.094
92.066	62.517
93.004	59.056
94.004	53.795
95.004	28.897
