Time [s]	Current [nA]
0.000	36.996
1.000	49.395
2.000	51.095
3.000	47.195
4.000	49.595
5.000	49.695
6.063	46.323
7.001	49.995
8.001	50.595
9.001	50.395
10.001	49.695
11.060	46.832
12.000	47.974
13.000	51.695
14.062	47.829
15.066	49.148
16.066	48.895
17.001	46.626
18.001	50.295
19.001	49.195
20.001	46.395
21.001	49.295
22.001	48.095
23.001	48.095
24.001	50.395
25.001	46.295
26.002	49.395
27.002	48.695
28.002	48.095
29.102	49.722
30.058	45.498
31.001	48.245
32.059	46.309
33.001	50.420
34.001	47.795
35.001	46.395
36.002	51.195
37.068	46.149
38.002	52.457
39.002	49.595
40.002	49.895
41.002	47.195
42.002	50.895
43.002	45.595
44.063	51.362
45.002	47.812
46.003	50.495
47.002	46.442
48.091	49.674
49.002	49.830
50.002	49.395
51.002	49.695
52.002	51.495
53.002	46.795
54.002	49.995
55.002	49.195
56.003	49.095
57.061	47.632
58.104	48.413
59.064	52.391
60.003	46.960
61.003	48.895
62.061	46.026
63.068	49.350
64.003	49.086
65.002	49.444
66.061	46.404
67.003	52.012
68.003	45.795
69.003	48.495
70.003	50.895
71.003	48.995
72.003	48.495
73.003	48.395
74.003	45.995
75.003	49.895
76.004	49.495
77.004	43.996
78.004	52.695
79.004	44.596
80.062	47.254
81.060	50.596
82.003	46.973
83.063	49.618
84.003	46.272
85.003	50.195
86.004	45.995
87.069	50.699
88.004	47.054
89.004	48.795
90.004	47.995
91.004	50.395
92.004	45.795
93.069	49.479
94.004	45.664
95.070	48.915
96.005	48.230
97.005	45.695
98.078	49.482
99.005	47.568
100.004	47.843
101.004	47.195
102.004	49.895
103.004	5.499
