Time [s]	Current [nA]
0.000	25.490
1.000	46.095
2.058	48.577
3.000	49.040
4.000	48.895
5.062	49.854
6.061	47.843
7.062	47.847
8.001	49.196
9.001	46.095
10.066	49.760
11.060	46.977
12.000	45.421
13.000	49.195
14.001	49.046
15.001	43.039
16.001	48.295
17.001	46.195
18.001	47.095
19.001	49.395
20.001	48.495
21.001	43.296
22.001	46.995
23.001	46.795
24.054	45.959
25.002	50.470
26.002	44.796
27.063	49.194
28.002	44.830
29.001	46.842
30.058	46.731
31.001	51.214
32.001	43.596
33.063	48.206
34.001	44.558
35.002	48.195
36.002	48.195
37.002	44.596
38.002	47.295
39.002	46.695
40.002	47.195
41.002	49.295
42.002	45.695
43.002	48.795
44.064	49.148
45.003	46.051
46.002	47.943
47.002	52.295
48.002	46.595
49.002	49.395
50.002	47.895
51.002	48.495
52.002	50.795
53.002	50.895
54.075	47.060
55.063	49.640
56.003	45.846
57.003	47.695
58.003	50.695
59.003	49.995
60.003	45.295
61.003	48.895
62.003	47.795
63.065	52.349
64.058	46.320
65.002	46.817
66.003	49.195
67.064	49.100
68.003	45.043
69.003	48.895
70.003	43.396
71.003	47.095
72.003	46.095
73.003	47.095
74.003	48.495
75.003	48.195
76.004	44.796
77.069	50.793
78.065	48.590
79.004	46.428
80.004	48.795
81.003	46.242
82.061	45.648
83.061	48.795
84.003	52.330
85.078	46.550
86.004	49.023
87.004	51.595
88.004	49.595
89.004	48.895
90.004	48.895
91.004	46.295
92.004	50.395
93.004	49.795
94.004	47.595
95.004	48.295
96.005	50.095
97.065	48.580
98.005	49.995
99.004	50.245
100.004	49.595
101.004	49.395
102.067	47.690
103.004	49.622
104.203	33.942
