Time [s]	Current [nA]
0.000	21.335
1.000	41.296
2.000	43.296
3.000	43.096
4.000	42.696
5.001	44.596
6.063	42.369
7.001	41.787
8.001	43.596
9.001	42.996
10.001	42.896
11.001	44.896
12.059	42.907
13.062	44.063
14.001	41.636
15.063	44.670
16.001	43.279
17.001	45.095
18.001	40.096
19.001	43.096
20.001	42.996
21.001	43.496
22.001	45.295
23.001	44.696
24.001	40.196
25.002	43.496
26.061	44.944
27.002	42.610
28.068	41.459
29.002	43.786
30.002	43.196
31.002	42.996
32.002	43.096
33.001	45.041
34.001	44.096
35.001	39.596
36.002	43.196
37.002	43.596
38.100	44.349
39.002	45.450
40.002	41.096
41.002	43.496
42.002	43.196
43.002	43.096
44.002	44.796
45.002	44.496
46.003	40.096
47.003	43.196
48.003	42.996
49.003	43.096
50.061	42.623
51.002	47.179
52.002	40.096
53.002	42.796
54.061	44.471
55.002	43.566
56.003	44.696
57.003	38.896
58.063	44.713
59.064	42.753
60.003	41.423
61.003	45.395
62.003	41.296
63.003	42.896
64.062	44.660
65.003	41.547
66.004	44.296
67.093	41.226
68.003	44.611
69.003	43.096
70.003	42.796
71.003	43.196
72.003	44.196
73.003	44.196
74.003	39.796
75.003	42.996
76.064	44.901
77.004	42.549
78.004	43.796
79.004	39.396
80.004	13.199
81.004	15.698
82.004	24.298
83.065	31.948
84.004	36.525
85.066	40.901
86.004	50.102
87.004	47.295
88.004	47.995
89.064	47.165
90.004	47.548
91.004	47.595
92.057	44.345
93.004	49.203
94.004	44.096
95.004	47.795
96.005	46.895
97.062	43.137
98.005	48.882
99.063	43.663
100.005	46.704
101.005	47.295
102.005	47.095
103.061	43.462
104.004	48.564
105.004	43.696
106.005	47.495
107.005	46.795
108.005	46.695
109.005	45.695
110.062	43.515
111.005	46.231
112.005	47.395
113.005	46.895
114.062	43.420
115.063	45.895
116.006	23.009
