Time [s]	Current [nA]
0.000	45.295
1.000	49.495
1.999	49.244
3.054	48.147
3.999	49.519
4.999	50.295
6.000	49.595
7.060	51.316
8.000	46.804
9.000	51.795
10.000	46.995
11.000	49.095
12.000	48.595
13.000	48.895
14.000	48.595
15.064	15.803
16.001	19.315
17.001	29.097
18.063	38.885
19.055	38.000
20.000	47.297
21.000	54.695
22.000	54.595
23.000	53.095
24.057	50.042
25.000	52.911
26.068	56.039
27.001	51.013
28.001	52.695
29.056	49.379
30.058	52.390
31.054	53.810
32.001	51.948
33.001	53.195
34.001	51.395
35.001	51.995
36.062	50.561
37.001	50.474
38.001	54.295
39.001	52.195
40.001	51.395
41.001	51.695
42.001	49.195
43.001	53.695
44.001	53.495
45.001	52.395
46.063	49.100
47.002	51.539
48.002	53.995
49.067	51.732
50.002	50.155
51.064	53.761
52.002	49.355
53.002	53.095
54.001	49.344
55.001	52.095
56.002	51.095
57.002	51.695
58.002	51.895
59.067	50.605
60.002	51.866
61.002	51.295
62.002	51.295
63.060	48.861
64.002	53.073
65.063	50.844
66.003	49.889
67.068	54.267
68.003	49.300
69.003	51.195
70.066	50.324
71.063	53.455
72.067	51.290
73.067	50.795
74.002	49.086
75.065	49.336
76.003	50.102
77.068	52.859
78.069	50.345
79.068	49.945
80.068	49.295
81.060	47.374
82.060	51.395
83.068	50.491
84.003	47.803
85.003	49.795
86.062	48.577
87.087	48.678
88.004	51.140
89.003	49.645
90.068	50.417
91.003	47.696
92.003	51.095
93.058	48.431
94.057	49.444
95.003	47.035
96.059	50.801
97.004	47.826
98.004	49.895
99.063	47.776
100.004	47.817
101.004	0.300
