Time [s]	Current [nA]
0.000	32.294
1.000	51.595
2.000	47.595
3.000	50.895
4.000	48.995
5.000	49.695
6.001	49.395
7.066	49.009
8.001	50.048
9.062	47.026
10.059	49.042
11.000	52.067
12.058	47.916
13.000	49.464
14.000	49.295
15.000	49.495
16.001	48.795
17.001	49.395
18.062	48.252
19.001	49.516
20.001	50.895
21.059	46.498
22.001	52.967
23.001	51.495
24.080	48.559
25.001	48.095
26.002	48.695
27.002	48.395
28.001	48.444
29.001	45.995
30.001	51.095
31.001	49.295
32.001	48.695
33.001	48.595
34.064	47.502
35.098	48.785
36.064	48.132
37.064	48.795
38.060	49.493
39.002	52.012
40.002	46.895
41.060	48.388
42.064	48.800
43.059	48.236
44.002	51.108
45.002	49.695
46.002	45.841
47.057	48.147
48.002	52.058
49.002	48.995
50.002	48.995
51.004	49.895
52.002	47.089
53.061	46.832
54.061	48.995
55.064	48.698
56.003	51.646
57.003	46.095
58.003	50.995
59.003	49.295
60.060	45.880
61.003	51.957
62.003	50.395
63.002	46.442
64.002	49.095
65.060	46.542
66.003	51.639
67.003	48.595
68.003	46.395
69.065	52.631
70.003	48.183
71.003	48.895
72.003	48.995
73.003	50.495
74.003	46.495
75.003	50.595
76.066	46.135
77.061	48.638
78.004	51.639
79.063	48.154
80.004	49.092
81.003	49.144
82.060	45.785
83.003	51.532
84.003	49.895
85.088	46.029
86.066	46.928
87.066	48.595
88.066	48.895
89.004	52.340
90.059	48.242
91.004	50.154
92.067	47.690
93.067	49.295
94.004	52.289
95.008	49.796
96.005	45.979
97.005	50.695
98.004	49.044
99.004	49.395
100.063	47.493
101.004	48.348
102.054	21.998
