Time [s]	Current [nA]
0.000	5.834
1.065	52.859
2.058	47.629
3.000	49.889
4.079	50.412
5.001	49.615
6.062	53.341
7.001	48.132
8.001	48.195
9.001	52.095
10.000	49.845
11.000	49.695
12.000	49.795
13.000	47.295
14.000	51.495
15.001	50.495
16.052	47.379
17.001	51.207
18.001	49.095
19.001	45.195
20.001	49.995
21.001	48.295
22.001	49.195
23.001	48.695
24.001	46.095
25.086	45.844
26.002	55.780
27.002	45.395
28.001	48.343
29.001	48.795
30.001	51.095
31.001	50.895
32.001	44.796
33.001	48.195
34.001	54.095
35.002	57.994
36.002	58.194
37.067	56.051
38.002	54.861
39.002	56.894
40.067	58.116
41.002	57.000
42.068	55.623
43.065	57.266
44.002	53.890
45.001	56.351
46.094	57.870
47.053	53.801
48.067	57.687
49.002	54.433
50.002	55.994
51.002	55.894
52.002	53.595
53.002	58.494
54.002	56.794
55.003	56.094
56.003	55.394
57.003	55.994
58.065	56.021
59.062	52.252
60.003	54.299
61.003	55.294
62.002	55.350
63.002	57.294
64.006	56.568
65.002	50.597
66.003	55.594
67.003	54.595
68.003	54.595
69.003	57.394
70.003	51.395
71.003	54.895
72.003	55.394
73.003	53.795
74.003	54.994
75.003	49.995
76.066	58.563
77.004	52.660
78.004	53.295
79.062	50.373
80.003	52.917
81.003	54.495
82.003	52.695
83.003	51.795
84.003	51.195
85.003	53.795
86.004	48.595
87.004	53.795
88.004	52.295
89.004	52.495
90.004	53.095
91.004	49.295
92.004	53.395
93.066	49.148
94.004	54.472
95.004	47.095
