Time [s]	Current [nA]
0.000	14.449
1.000	46.695
2.000	43.196
3.000	47.895
4.000	48.595
4.999	43.039
6.000	47.095
7.000	45.895
8.000	46.395
9.000	47.895
10.000	43.896
11.062	48.112
12.000	43.492
13.000	45.595
14.000	47.095
15.000	47.595
16.001	42.696
17.001	45.695
18.001	45.195
19.001	45.195
20.001	46.895
21.001	47.195
22.063	43.781
23.000	43.432
24.000	45.195
25.000	46.895
26.001	45.395
27.001	42.796
28.001	45.495
29.001	44.796
30.001	45.295
31.001	46.795
32.001	43.296
33.001	45.995
34.001	45.495
35.001	45.595
36.002	46.395
37.002	46.595
38.002	43.296
39.002	45.695
40.001	45.141
41.001	44.995
42.001	47.895
43.001	44.396
44.001	47.295
45.001	45.895
46.002	46.595
47.002	45.995
48.002	44.096
49.002	47.195
50.002	45.495
51.002	45.295
52.002	45.195
53.002	46.895
54.002	43.696
55.002	46.395
56.003	45.695
57.059	43.083
58.002	48.033
59.002	42.996
60.065	48.725
61.002	44.713
62.002	45.195
63.002	45.395
64.002	43.396
65.064	49.382
66.070	41.248
67.003	50.263
68.003	44.995
69.003	45.495
70.060	43.988
71.003	45.170
72.065	43.781
73.003	48.289
74.003	45.495
75.002	43.239
76.003	45.695
77.003	47.095
78.003	44.796
79.003	44.296
80.003	45.395
81.003	43.596
82.003	47.295
83.003	46.495
84.003	45.795
85.003	46.195
86.004	41.796
87.083	47.354
88.004	47.444
89.004	45.096
90.059	43.313
91.004	48.249
92.004	47.095
93.003	43.039
94.065	43.404
95.003	48.716
96.004	45.395
97.004	45.895
98.004	43.496
99.004	46.895
100.004	45.495
101.056	42.961
102.004	47.569
103.004	47.295
104.004	43.496
105.090	47.276
106.005	45.132
107.005	46.195
108.005	45.295
109.005	42.496
110.004	26.524
