Time [s]	Current [nA]
0.000	6.284
1.000	53.795
2.000	48.695
3.000	52.495
4.058	51.602
5.057	50.596
6.055	49.995
7.058	50.145
8.000	51.693
9.062	55.550
10.000	51.381
11.000	51.695
12.000	51.295
13.000	51.395
14.000	49.395
15.056	51.180
16.001	54.915
17.001	50.595
18.001	50.995
19.001	49.595
20.001	55.594
21.001	58.494
22.000	58.853
23.000	58.194
24.000	58.694
25.000	55.694
26.001	61.294
27.001	59.594
28.001	58.594
29.001	58.794
30.001	55.694
31.001	60.494
32.001	58.894
33.001	58.894
34.001	57.394
35.001	58.094
36.002	60.294
37.002	55.694
38.002	59.094
39.002	58.294
40.001	57.852
41.001	60.394
42.001	53.995
43.001	60.594
44.001	58.594
45.060	54.531
46.002	60.503
47.003	59.834
48.002	54.849
49.002	59.294
50.002	57.894
51.002	58.194
52.002	59.294
53.002	53.095
54.002	59.994
55.066	54.369
56.003	59.973
57.057	53.505
58.002	62.004
59.002	54.495
60.002	57.994
61.002	56.194
62.002	56.994
63.002	57.194
64.002	53.395
65.002	58.194
66.003	56.894
67.060	52.596
68.059	56.651
69.061	57.379
70.003	55.833
71.087	56.452
72.003	48.139
73.066	19.942
74.003	29.559
75.002	36.032
76.003	46.695
77.003	49.695
78.003	51.495
79.060	52.502
80.062	57.379
81.003	55.786
82.003	55.694
83.003	56.294
84.065	52.255
85.061	55.572
86.064	57.721
87.004	55.420
88.004	55.794
89.004	54.395
90.063	51.647
91.004	59.824
92.047	24.926
