Time [s]	Current [nA]
0.000	36.396
0.999	53.448
1.999	55.994
2.999	56.194
4.061	59.034
4.999	65.025
6.059	57.407
7.059	60.794
8.000	60.887
9.000	60.994
10.000	57.194
11.000	60.894
12.065	62.153
13.000	57.000
14.000	62.394
15.000	56.794
16.001	60.694
17.059	55.477
18.000	63.756
19.000	54.095
20.061	65.686
21.000	59.100
22.008	59.419
23.063	56.298
24.000	57.732
25.000	61.094
26.001	56.294
27.001	59.494
28.066	61.778
29.059	53.670
30.062	59.216
31.001	59.951
32.059	57.839
33.063	60.552
34.001	63.533
35.064	55.738
36.001	58.906
37.001	61.194
38.001	58.694
39.001	59.394
40.059	55.666
41.001	62.733
42.001	56.294
43.059	57.934
44.001	56.895
45.069	59.319
46.067	61.317
47.002	59.032
48.002	53.995
49.002	61.094
50.002	59.394
51.002	59.494
52.002	58.894
53.060	56.989
54.071	61.023
55.056	54.364
56.064	63.089
57.002	56.604
58.002	59.994
59.002	59.794
60.002	56.994
61.002	59.694
62.002	59.294
63.002	59.994
64.002	56.394
65.002	61.194
66.003	53.795
67.003	63.594
68.056	55.550
69.003	55.961
70.003	60.694
71.002	60.655
72.002	53.095
73.002	61.894
74.002	57.794
75.002	54.995
76.003	61.294
77.003	53.595
78.003	58.994
79.003	58.594
80.003	59.294
81.003	61.694
82.058	57.909
83.015	61.749
84.003	54.752
85.031	26.580
