Time [s]	Current [nA]
0.000	45.241
1.059	56.463
2.000	54.724
3.000	54.895
4.000	54.795
5.001	56.094
6.001	57.794
7.001	55.694
8.001	51.295
9.062	57.110
10.001	52.923
11.001	57.294
12.001	56.594
13.001	49.495
14.001	57.694
15.002	52.895
16.002	51.095
17.001	54.849
18.002	55.539
19.001	49.845
20.001	53.595
21.062	54.660
22.001	53.669
23.001	54.495
24.062	49.854
25.002	50.048
26.002	57.094
27.002	49.095
28.002	54.495
29.002	50.395
30.002	51.095
31.002	51.495
32.060	52.358
33.002	51.375
34.002	53.595
35.001	47.243
36.002	50.495
37.002	51.095
38.002	50.295
39.002	52.795
40.002	51.795
41.002	45.995
42.002	47.795
43.002	53.395
44.002	47.895
45.003	52.495
46.003	46.595
47.003	50.295
48.003	49.795
49.003	49.795
50.003	51.995
51.003	52.095
52.062	47.776
53.060	49.294
54.002	52.224
55.002	47.295
56.003	52.095
57.003	30.697
58.003	19.898
59.003	31.297
60.003	38.696
61.003	45.595
62.003	49.095
63.003	45.595
64.003	49.795
65.003	49.695
66.004	50.495
67.004	50.095
68.004	44.796
69.004	48.795
70.003	48.544
71.003	49.395
72.003	53.095
73.003	52.595
74.003	45.395
75.003	48.195
76.063	50.137
77.004	49.411
78.004	49.395
79.062	49.239
80.064	48.997
81.066	47.400
82.004	46.371
83.067	51.641
84.063	46.080
85.004	47.604
86.005	52.095
87.004	47.843
88.004	43.196
89.004	49.695
90.004	49.895
91.004	44.196
92.004	48.595
93.004	52.295
94.004	45.695
95.004	49.995
96.005	44.496
97.005	52.595
98.061	45.166
99.005	45.546
100.013	23.510
