Time [s]	Current [nA]
0.000	25.867
1.000	62.194
2.000	65.193
3.000	65.093
4.000	67.293
5.000	67.593
6.000	59.954
7.000	65.293
8.000	64.494
9.000	64.294
10.000	66.693
11.000	60.994
12.000	65.293
13.000	64.294
14.000	64.094
15.000	66.693
16.001	59.894
17.001	65.094
18.001	65.093
19.001	63.794
20.001	64.794
21.054	56.974
22.001	23.018
23.000	30.828
24.000	43.396
25.060	50.325
26.062	60.074
27.001	58.461
28.001	67.593
29.001	64.993
30.001	64.594
31.001	63.994
32.001	60.194
33.001	66.593
34.001	64.594
35.001	63.394
36.002	63.094
37.002	57.894
38.002	65.093
39.002	65.693
40.002	63.394
41.001	58.653
42.001	63.994
43.001	65.993
44.001	65.193
45.001	58.494
46.002	63.194
47.002	63.494
48.002	63.394
49.064	63.082
50.002	64.066
51.002	63.294
52.002	62.694
53.002	62.694
54.002	64.894
55.002	60.194
56.003	63.294
57.069	66.128
58.068	62.957
59.002	60.915
60.002	65.293
61.002	59.394
62.002	63.194
63.057	65.112
64.002	60.840
65.061	62.092
66.053	66.425
67.003	60.731
68.003	64.094
69.003	62.494
70.069	64.721
71.003	63.591
72.003	59.494
73.003	64.394
74.064	65.121
75.064	63.157
76.003	63.252
77.097	58.952
78.003	65.446
79.003	62.694
80.003	62.494
81.057	22.199
