Time [s]	Current [nA]
0.000	43.786
0.999	44.640
1.999	48.695
2.999	51.695
3.999	45.095
4.999	48.895
6.000	49.595
7.000	49.195
8.000	49.495
9.000	51.095
10.000	47.195
11.000	49.795
12.000	49.595
13.061	46.084
14.000	50.048
15.000	49.895
16.001	51.295
17.001	49.395
18.000	48.243
19.000	48.795
20.000	46.095
21.000	51.095
22.000	45.895
23.000	49.295
24.054	50.090
25.000	47.881
26.001	50.295
27.001	50.395
28.001	44.396
29.001	48.795
30.001	47.995
31.001	50.795
32.001	45.795
33.001	48.995
34.001	47.695
35.001	48.395
36.001	49.344
37.001	46.295
38.001	50.095
39.001	49.495
40.001	48.695
41.001	47.495
42.062	46.649
43.001	48.344
44.001	47.895
45.001	47.795
46.002	46.195
47.002	46.495
48.002	45.695
49.002	48.895
50.002	44.496
51.002	47.595
52.002	50.895
53.001	44.640
54.001	48.395
55.001	47.795
56.002	44.196
57.002	47.095
58.002	48.295
59.002	50.295
60.002	45.595
61.002	48.895
62.002	48.295
63.002	47.195
64.002	48.595
65.002	42.696
66.003	50.795
67.003	48.895
68.003	46.795
69.003	52.695
70.003	53.095
71.002	57.452
72.002	56.194
73.002	55.794
74.002	55.494
75.002	51.895
76.003	57.894
77.003	57.894
78.003	55.794
79.003	55.694
80.003	54.994
81.003	52.495
82.003	53.195
83.003	54.895
84.003	54.595
85.003	54.395
86.004	54.695
87.067	54.369
88.003	56.618
89.003	55.294
90.003	55.094
91.003	54.595
92.003	57.094
93.003	51.595
94.003	54.695
95.003	55.694
96.004	54.295
97.004	54.295
98.004	57.094
99.147	33.330
