Time [s]	Current [nA]
0.000	28.038
1.000	56.894
2.000	54.495
3.000	54.095
4.000	54.795
5.065	53.848
6.001	55.016
7.001	53.895
8.057	50.563
9.001	56.774
10.094	54.706
11.001	48.617
12.001	54.895
13.001	53.995
14.058	49.759
15.001	55.408
16.060	51.742
17.001	54.405
18.001	54.095
19.001	53.695
20.001	53.495
21.001	53.295
22.001	50.995
23.001	55.194
24.001	54.495
25.002	53.595
26.002	52.895
27.002	54.695
28.002	49.495
29.002	53.395
30.060	50.373
31.060	51.295
32.001	54.617
33.001	52.995
34.001	50.695
35.002	53.895
36.053	50.043
37.002	55.211
38.002	54.595
39.002	47.995
40.002	54.295
41.002	53.295
42.002	51.895
43.002	52.895
44.002	54.395
45.065	51.784
46.003	49.569
47.003	51.995
48.003	53.195
49.055	53.037
50.002	51.632
51.002	56.394
52.002	54.495
53.002	53.695
54.002	53.395
55.003	56.794
56.065	53.761
57.003	52.873
58.003	54.495
59.003	53.595
60.003	54.795
61.062	52.592
62.003	53.980
63.003	54.995
64.003	54.295
65.003	53.895
66.004	55.994
67.003	50.746
68.003	54.195
69.003	54.295
70.003	54.395
71.003	49.395
72.003	55.694
73.003	56.594
74.003	49.195
75.003	54.195
76.061	56.097
77.004	54.926
78.004	55.894
79.084	50.736
80.004	54.451
81.004	53.995
82.004	54.495
83.004	56.994
84.003	57.452
85.065	52.775
86.004	53.456
87.004	55.394
88.065	59.372
89.004	54.308
90.004	52.095
91.004	55.994
92.004	55.095
93.077	42.493
