Time [s]	Current [nA]
0.000	60.494
1.058	61.242
2.000	67.721
3.000	61.694
3.999	66.260
5.058	61.147
6.000	68.146
7.056	60.884
8.000	70.332
9.000	60.894
10.082	66.814
11.000	63.283
12.000	64.494
13.000	64.394
14.000	61.294
15.000	66.893
16.001	64.993
17.001	58.994
18.059	65.872
19.063	67.324
20.001	63.746
21.001	64.594
22.000	59.754
23.000	64.394
24.065	66.003
25.000	64.272
26.001	60.394
27.001	64.993
28.001	63.794
29.001	64.294
30.001	66.493
31.001	58.394
32.001	66.893
33.063	61.482
34.063	63.794
35.001	68.010
36.002	61.294
37.063	62.388
38.002	68.790
39.001	63.657
40.001	63.594
41.001	59.094
42.001	65.293
43.001	50.795
44.001	22.198
45.001	34.797
46.002	46.695
47.002	56.494
48.002	56.094
49.002	61.994
50.002	64.294
51.002	64.494
52.002	63.894
53.002	67.093
54.002	61.294
55.002	64.294
56.003	64.094
57.002	64.358
58.002	66.093
59.002	60.494
60.067	60.370
61.065	64.823
62.059	63.877
63.059	63.894
64.002	64.681
65.002	66.293
66.003	64.094
67.003	63.294
68.003	63.694
69.003	65.493
70.003	60.294
71.003	64.094
72.003	64.794
73.003	64.494
74.061	60.769
75.065	67.391
76.003	63.959
77.003	59.494
78.003	63.894
79.003	63.594
80.003	12.799
