Time [s]	Current [nA]
0.000	39.396
1.000	44.596
1.999	46.242
2.999	23.898
3.999	11.899
4.999	20.398
6.000	28.697
7.000	35.696
8.000	40.696
9.000	47.795
10.000	46.295
11.000	50.095
12.000	50.895
13.000	51.395
14.000	53.895
15.001	52.195
16.001	45.995
17.001	51.095
18.001	51.595
19.001	51.595
20.000	53.648
21.000	48.595
22.061	54.754
23.000	50.474
24.000	53.395
25.000	55.594
26.001	55.894
27.001	49.395
28.061	53.485
29.001	50.952
30.001	53.495
31.001	55.694
32.001	48.995
33.001	52.595
34.001	52.095
35.002	52.895
36.002	54.095
37.001	53.848
38.001	48.095
39.001	54.595
40.001	52.995
41.001	53.495
42.001	55.994
43.001	51.395
44.001	53.495
45.001	53.695
46.002	53.095
47.002	54.795
48.002	56.794
49.002	50.795
50.002	54.295
51.002	52.195
52.002	53.095
53.064	57.056
54.001	54.103
55.001	49.995
56.002	53.595
57.002	53.395
58.002	55.194
59.002	52.295
60.002	49.695
61.002	51.895
62.002	53.995
63.002	54.395
64.002	55.894
65.002	55.694
66.003	50.395
67.003	52.895
68.003	54.495
69.003	54.495
70.003	54.595
71.003	50.795
72.002	55.050
73.002	54.795
74.002	55.394
75.002	56.994
76.003	57.094
77.003	50.395
78.003	54.595
79.003	54.695
80.003	54.695
81.059	54.445
82.003	55.397
83.003	55.694
84.063	56.409
85.003	53.399
86.004	57.394
87.004	57.094
88.004	50.895
89.003	55.450
90.003	54.395
91.003	55.094
92.003	57.394
93.003	52.995
94.003	56.194
95.003	55.194
96.004	53.795
97.013	20.414
