Time [s]	Current [nA]
0.000	57.094
1.000	60.894
2.000	57.194
3.000	59.694
4.000	57.694
5.001	58.294
6.001	61.294
7.001	54.395
8.059	58.690
9.001	63.476
10.001	58.394
11.001	58.494
12.001	61.394
13.001	54.995
14.001	58.394
15.002	57.694
16.002	58.494
17.001	59.253
18.001	53.695
19.001	60.294
20.001	60.294
21.001	58.194
22.058	55.151
23.001	63.302
24.001	55.894
25.002	59.694
26.002	58.594
27.002	58.594
28.002	59.094
29.002	56.394
30.002	60.194
31.059	55.813
32.002	61.924
33.002	58.994
34.001	60.855
35.001	56.594
36.002	59.994
37.002	59.894
38.059	55.907
39.002	60.863
40.002	60.094
41.002	56.294
42.002	58.594
43.002	57.794
44.059	55.434
45.003	65.741
46.003	54.895
47.003	61.294
48.003	59.294
49.060	55.151
50.003	61.288
51.003	60.694
52.002	55.750
53.002	59.094
54.060	54.342
55.002	61.247
56.003	55.094
57.003	59.394
58.003	60.294
59.003	58.994
60.057	54.928
61.003	62.362
62.003	59.794
63.003	54.095
64.003	58.494
65.003	56.194
66.004	57.294
67.004	58.694
68.068	54.694
69.003	59.459
70.003	58.994
71.003	57.394
72.003	57.794
73.003	49.495
74.003	42.796
75.003	43.196
76.004	40.396
77.004	42.796
78.004	43.796
79.004	41.096
80.004	44.796
81.004	41.596
82.004	40.696
83.063	40.128
84.055	44.048
85.004	43.621
86.005	46.295
87.066	43.539
88.061	45.624
89.004	43.898
