Time [s]	Current [nA]
0.000	25.542
1.000	48.695
2.000	46.095
3.000	50.195
4.000	49.495
5.063	46.041
6.001	52.660
7.001	49.195
8.001	46.395
9.001	49.895
10.001	49.495
11.000	47.743
12.000	47.095
13.000	45.295
14.000	49.495
15.000	49.795
16.001	47.195
17.001	47.395
18.001	47.595
19.003	50.195
20.001	46.689
21.001	49.395
22.001	48.895
23.001	48.995
24.001	51.495
25.001	44.796
26.059	48.150
27.002	51.851
28.002	48.595
29.001	48.544
30.058	47.488
31.001	48.776
32.001	50.295
33.001	48.295
34.001	49.095
35.001	50.295
36.002	45.795
37.002	49.195
38.002	47.195
39.060	44.703
40.002	51.163
41.002	44.996
42.002	48.995
43.002	49.095
44.002	48.595
45.002	47.795
46.002	48.744
47.002	46.295
48.002	50.895
49.002	48.895
50.002	48.195
51.002	47.795
52.061	45.605
53.002	48.242
54.002	48.695
55.002	48.095
56.003	38.396
57.003	33.397
58.003	31.097
59.003	32.897
60.003	31.897
61.003	31.197
62.003	31.197
63.003	33.197
64.002	29.827
65.060	31.880
66.003	35.521
67.003	33.197
68.003	33.397
69.003	31.697
70.003	33.097
71.003	33.097
72.060	30.555
73.003	35.521
74.003	31.297
75.077	33.734
76.060	33.160
77.004	36.013
78.004	34.397
79.004	36.596
80.004	34.097
81.061	35.096
82.003	38.531
83.003	36.996
84.003	36.596
85.003	37.896
86.064	36.694
87.004	39.145
88.004	38.196
89.004	37.896
90.004	37.496
91.063	36.729
92.004	37.935
93.004	38.596
94.004	38.396
95.004	39.096
96.005	41.196
97.005	38.196
98.005	38.996
99.004	39.736
100.004	40.196
101.004	41.396
102.004	40.496
103.004	42.896
104.004	42.896
105.004	41.896
106.005	42.296
107.005	43.496
108.005	39.796
109.005	44.096
110.005	45.595
111.005	44.596
112.005	42.696
113.061	41.378
114.005	41.309
115.064	42.245
116.005	46.117
117.005	44.296
118.005	0.300
