Time [s]	Current [nA]
0.000	9.798
1.059	51.553
2.000	55.999
3.000	48.595
4.000	54.395
5.001	54.595
6.001	48.495
7.001	53.095
8.001	58.194
9.001	50.195
10.001	54.595
11.008	52.031
12.000	49.390
13.000	51.595
14.000	52.295
15.001	52.295
16.001	49.195
17.001	52.495
18.001	50.895
19.001	50.295
20.001	53.895
21.001	46.595
22.001	51.095
23.001	50.295
24.001	49.895
25.002	49.795
26.002	51.895
27.002	48.795
28.060	50.468
29.001	55.149
30.001	52.495
31.001	52.495
32.013	51.675
33.001	49.590
34.001	51.695
35.002	52.095
36.002	51.095
37.002	53.395
38.002	50.695
39.002	51.595
40.002	52.195
41.002	53.195
42.002	54.495
43.002	53.995
44.002	48.595
45.003	52.195
46.003	51.495
47.002	51.747
48.002	52.995
49.004	49.795
50.002	52.800
51.002	52.095
52.057	48.526
53.088	55.669
54.002	47.041
55.003	52.795
56.003	51.495
57.003	50.095
58.068	52.295
59.003	46.306
60.003	52.195
61.003	52.795
62.061	49.900
63.003	54.665
64.002	51.046
65.002	53.195
66.003	49.895
67.003	52.695
68.003	52.995
69.003	52.395
70.003	53.195
71.003	48.295
72.003	52.895
73.003	52.795
74.003	52.995
75.003	51.395
76.004	53.295
77.066	52.161
78.004	50.315
79.004	52.495
80.004	52.095
81.004	52.995
82.003	46.742
83.003	48.895
84.003	13.799
85.003	17.898
86.004	28.497
87.058	37.188
88.004	42.913
89.004	47.195
90.004	52.395
91.004	53.095
92.004	52.695
93.004	48.195
94.004	53.495
95.004	52.295
96.005	51.395
97.005	51.795
98.005	53.695
99.004	47.443
100.057	6.077
