Time [s]	Current [nA]
0.000	51.877
1.000	71.607
2.000	71.807
3.000	75.208
4.000	72.107
5.059	72.837
5.999	71.071
6.999	74.207
7.998	73.180
8.998	76.808
9.998	76.208
11.058	71.234
11.998	70.645
12.998	73.607
13.998	74.707
14.998	75.408
15.997	69.507
16.997	73.907
17.997	74.607
18.997	73.907
20.054	73.801
20.997	75.405
21.997	75.808
22.997	74.908
23.997	74.407
24.997	73.707
26.052	73.492
26.995	81.875
27.995	69.707
28.995	75.108
30.055	77.649
30.995	74.476
31.995	70.807
32.995	75.808
33.995	75.608
34.995	74.107
35.994	73.707
36.995	77.231
37.994	76.684
39.054	72.177
39.994	72.135
41.053	77.156
41.994	74.609
42.993	78.186
43.993	68.907
44.993	75.308
45.992	74.807
46.992	74.707
47.992	77.808
48.992	78.508
49.992	70.007
50.992	75.408
51.992	75.608
52.992	77.408
53.992	76.008
55.051	75.007
55.991	73.412
56.991	74.707
57.991	76.208
58.991	78.308
59.990	78.386
60.990	70.207
62.051	77.576
62.990	72.638
63.990	76.008
64.990	78.808
65.989	72.707
66.989	36.204
