Time [s]	Current [nA]
0.000	60.600
1.000	71.400
2.000	72.000
3.000	74.700
4.000	67.500
5.000	72.200
6.000	71.600
7.000	71.400
8.078	68.924
9.073	74.874
9.999	73.110
10.999	72.300
11.999	71.900
12.999	65.100
13.999	73.700
14.999	74.100
15.999	72.300
16.999	70.900
17.999	71.200
18.999	65.000
19.999	74.700
20.999	73.900
21.999	65.300
22.999	71.600
23.999	71.700
24.999	73.900
25.999	68.100
27.083	72.509
28.063	73.878
28.998	69.198
30.063	73.521
30.998	72.834
31.998	67.800
33.063	73.991
33.998	69.198
34.998	72.200
35.998	75.100
36.998	67.600
38.078	74.537
38.998	70.652
40.061	67.262
40.998	76.307
41.998	67.700
42.998	73.800
43.998	72.700
45.059	67.389
45.997	76.333
46.997	68.700
47.997	72.200
48.997	73.400
49.997	66.700
50.997	71.300
51.997	71.300
52.997	73.500
53.997	68.100
55.062	74.460
56.063	71.928
57.062	71.171
58.075	64.659
58.997	78.308
60.061	69.831
60.997	69.231
61.997	70.900
62.996	71.672
63.996	74.400
64.996	68.100
65.996	72.100
66.996	71.000
67.996	71.400
69.086	65.688
70.050	24.170
