Time [s]	Current [nA]
0.000	61.494
1.000	70.393
2.000	66.393
3.000	69.993
4.000	68.993
5.001	75.092
6.063	57.527
7.001	24.305
8.001	31.297
9.055	48.762
10.060	56.711
11.001	61.418
12.000	67.661
13.000	72.993
14.000	64.993
15.001	69.593
16.001	76.192
17.001	67.293
18.001	72.793
19.001	64.594
20.001	70.193
21.001	69.693
22.001	69.893
23.059	69.275
24.001	76.744
25.002	64.594
26.002	69.393
27.062	71.219
28.065	73.273
29.001	69.758
30.001	70.093
31.001	64.394
32.001	69.093
33.064	71.018
34.001	70.110
35.002	73.293
36.002	64.394
37.002	69.293
38.002	75.392
39.002	65.493
40.002	71.793
41.002	69.993
42.002	70.493
43.002	63.994
44.002	69.893
45.003	71.493
46.003	72.093
47.002	64.058
48.002	68.893
49.002	68.893
50.002	71.393
51.002	69.693
52.002	71.693
53.002	63.294
54.002	68.893
55.003	74.793
56.003	65.393
57.003	71.093
58.003	69.693
59.003	68.493
60.003	68.793
61.003	63.194
62.003	70.193
63.003	71.393
64.014	68.836
65.003	63.556
66.062	70.437
67.003	68.325
68.003	71.393
69.003	63.094
70.003	67.993
71.003	68.193
72.003	67.993
73.003	70.993
74.003	14.099
