Time [s]	Current [nA]
0.000	19.347
1.000	73.000
2.000	69.400
3.000	65.600
4.000	65.300
5.080	60.088
6.000	67.059
6.999	67.661
7.999	59.894
8.999	63.894
10.000	69.393
11.000	60.994
12.000	66.693
13.000	65.793
14.000	61.394
15.000	66.593
16.000	66.493
17.000	69.193
18.000	68.193
19.000	61.294
20.060	69.020
21.001	64.287
22.064	72.241
23.069	62.581
24.000	67.340
25.000	68.193
26.000	67.693
27.000	67.393
28.063	72.711
29.000	67.869
30.001	63.294
31.001	73.993
32.001	68.193
33.001	64.594
34.001	69.093
35.001	71.793
36.001	63.694
37.001	68.193
38.001	73.593
39.062	67.759
40.002	68.151
41.002	63.594
42.058	70.447
43.001	71.891
44.001	62.894
45.001	71.293
46.001	70.893
47.001	63.794
48.063	70.803
49.001	73.553
50.002	66.193
51.002	71.793
52.002	63.994
53.002	74.593
54.058	66.092
55.002	67.048
56.064	75.604
57.002	70.355
58.002	65.193
59.001	70.163
60.002	69.793
61.002	72.493
62.002	71.993
63.002	63.594
64.002	70.693
65.002	69.493
66.002	69.793
67.002	72.093
68.061	67.982
69.060	71.164
70.063	68.855
71.003	66.802
72.003	72.293
73.003	72.893
74.077	13.686
