Time [s]	Current [nA]
0.000	30.501
1.063	69.715
2.000	74.501
3.000	75.508
4.000	78.208
5.000	74.607
6.061	69.969
6.999	79.219
7.999	70.307
8.999	76.908
9.999	75.808
10.999	73.207
11.999	73.907
12.998	75.483
14.063	71.369
14.998	74.339
15.997	74.007
17.059	69.593
18.059	73.607
18.997	73.888
19.997	75.208
21.056	69.601
22.057	74.833
22.997	70.007
23.997	72.507
24.997	75.508
25.996	67.607
27.001	78.316
28.057	69.136
28.996	69.229
29.996	74.707
30.995	68.876
32.076	72.995
32.995	71.607
33.995	71.007
34.995	71.107
36.051	69.638
36.994	79.541
37.994	67.107
38.994	71.407
39.994	72.007
40.994	74.107
41.994	74.507
42.994	67.007
43.994	72.507
44.994	72.007
45.993	71.607
47.046	69.713
47.992	78.021
48.992	66.807
49.992	72.107
50.992	71.807
52.050	70.517
52.992	77.927
53.992	68.007
55.056	73.622
55.991	68.670
56.991	71.307
57.991	74.400
59.049	70.132
59.991	70.807
60.991	71.900
61.991	72.200
62.991	73.100
64.053	71.375
64.991	73.667
65.990	73.273
66.990	73.000
67.990	73.200
69.039	41.277
