Time [s]	Current [nA]
0.000	0.175
1.087	60.803
2.062	71.890
3.000	66.518
3.999	67.060
5.000	67.193
6.000	69.393
7.000	69.793
8.000	62.294
9.000	67.093
10.000	66.993
11.000	68.193
12.000	68.193
13.000	64.094
14.000	67.293
15.062	68.608
16.001	64.104
17.001	69.093
18.054	65.141
19.062	67.553
20.001	63.785
21.000	66.760
22.000	66.493
23.057	65.178
24.000	67.119
25.001	66.593
26.001	66.693
27.001	65.993
28.001	68.393
29.001	62.994
30.001	66.693
31.001	66.093
32.001	66.193
33.001	66.393
34.056	65.017
35.002	72.056
36.002	61.294
37.002	65.993
38.002	65.993
39.055	65.236
40.001	65.321
41.001	67.493
42.001	66.593
43.001	66.093
44.001	66.193
45.002	68.693
46.002	67.993
47.002	61.894
48.002	65.793
49.002	66.193
50.002	68.493
51.002	67.593
52.002	62.294
53.002	66.493
54.002	66.293
55.065	68.355
56.002	66.909
57.002	68.893
58.002	61.694
59.002	66.693
60.063	68.796
61.002	65.276
62.002	68.293
63.002	64.294
64.002	66.793
65.003	66.093
66.064	68.325
67.003	66.873
68.003	63.594
69.003	66.993
70.003	66.993
71.003	45.395
72.003	24.098
73.003	38.296
74.002	45.141
75.002	56.394
76.003	59.394
77.003	63.694
78.003	19.598
