Time [s]	Current [nA]
0.000	54.800
1.000	74.000
2.000	73.200
3.000	74.100
4.063	52.023
5.000	24.120
6.000	33.100
7.059	51.180
8.059	60.400
9.055	62.048
10.088	69.990
10.999	75.521
12.059	76.604
12.999	69.894
13.999	73.200
15.057	72.117
16.055	75.952
16.999	71.610
18.060	75.778
18.999	69.223
20.073	78.026
21.065	66.633
22.060	77.085
22.999	70.927
24.064	75.305
25.063	72.673
25.999	73.291
26.998	68.869
28.060	75.800
29.059	72.472
30.058	71.972
30.998	69.468
31.998	76.400
33.056	70.983
33.998	70.170
34.998	72.100
36.060	75.424
36.998	72.601
37.998	75.500
38.998	66.700
39.998	72.600
41.059	74.175
41.998	69.862
42.998	75.300
43.997	69.369
44.997	73.500
46.057	74.811
46.997	69.043
48.054	71.145
49.052	75.751
49.997	70.582
50.997	74.300
52.059	74.859
53.059	72.400
53.997	73.134
54.997	75.700
56.058	70.688
56.997	69.649
57.997	72.700
59.054	72.185
59.997	79.109
60.997	69.200
61.996	73.173
63.057	74.835
63.996	69.755
64.996	75.500
66.054	71.267
66.996	71.868
67.996	73.300
68.996	72.000
70.071	70.512
