Time [s]	Current [nA]
0.000	28.286
1.000	72.100
2.055	68.720
3.091	70.849
4.000	72.717
5.000	74.100
6.058	68.715
7.056	70.741
8.056	71.100
8.999	71.368
10.057	70.038
11.061	71.912
11.999	68.763
12.999	70.800
13.999	71.200
14.999	74.400
15.999	73.700
16.999	65.800
17.999	71.000
18.999	70.700
19.999	74.100
21.059	69.906
21.999	69.255
23.064	74.366
24.059	70.653
25.059	71.500
25.998	70.714
27.049	70.599
28.055	71.571
28.998	68.187
29.998	70.700
30.998	73.800
32.068	68.972
32.998	70.753
33.998	71.800
34.998	70.300
35.998	70.700
37.053	69.668
37.998	78.201
39.068	67.664
39.997	69.860
40.997	70.900
41.997	73.600
43.074	67.224
43.997	73.131
44.997	71.200
45.997	70.400
46.997	71.000
47.997	74.100
48.997	73.200
50.058	68.049
50.997	68.690
51.997	71.000
52.997	71.100
53.997	73.300
55.056	69.877
56.004	75.844
57.056	67.205
57.996	68.511
58.996	73.500
60.051	70.616
60.996	68.783
61.996	70.700
63.054	72.873
63.996	68.153
64.996	74.100
66.055	68.650
66.996	69.819
67.996	70.100
68.996	69.900
70.052	69.508
71.049	8.626
