Time [s]	Current [nA]
0.000	31.370
0.999	72.573
1.999	75.600
2.999	76.500
3.999	68.000
4.999	72.900
5.999	72.700
6.999	72.900
8.057	72.306
8.999	72.930
9.999	73.500
10.999	72.500
11.999	79.600
12.999	69.000
13.999	76.000
14.999	66.900
15.999	73.400
17.057	73.440
17.999	69.639
19.053	71.537
19.998	79.894
20.998	67.400
21.998	72.200
22.998	72.400
23.998	75.000
24.998	75.100
26.062	68.891
26.998	70.833
27.998	71.500
28.998	71.600
30.062	72.744
30.998	63.996
31.998	58.000
33.057	63.456
33.998	59.405
34.998	64.100
35.997	63.664
36.997	59.900
37.997	63.700
38.997	64.600
39.997	65.100
40.997	66.900
41.997	61.300
42.997	65.900
43.997	65.100
44.997	65.200
46.088	67.003
46.997	65.457
47.997	69.300
49.058	63.902
49.997	64.111
51.051	69.924
51.997	66.596
52.997	70.100
53.996	62.062
54.996	67.100
55.996	67.600
56.996	68.300
57.996	71.800
58.996	71.800
59.996	63.400
61.052	69.886
61.996	65.466
62.996	70.700
63.996	72.000
64.996	63.000
66.056	71.698
66.996	65.213
67.996	69.800
68.996	71.800
70.055	68.650
70.995	67.872
71.995	68.000
72.995	13.900
