Time [s]	Current [nA]
0.000	1.435
0.999	60.554
1.999	56.694
2.999	60.894
3.999	60.094
5.057	55.813
6.000	62.454
7.000	55.194
8.000	59.194
9.000	61.494
10.000	58.694
11.000	58.194
12.000	58.294
13.000	54.695
14.000	60.094
15.001	59.894
16.001	58.294
17.001	57.694
18.001	53.695
19.000	60.655
20.000	61.094
21.000	59.294
22.000	58.094
23.000	57.994
24.000	60.094
25.000	55.994
26.001	60.094
27.001	58.494
28.001	58.994
29.001	59.194
30.001	55.594
31.001	60.694
32.063	55.927
33.001	62.041
34.001	58.494
35.002	55.594
36.001	60.454
37.001	59.394
38.001	58.894
39.001	58.394
40.001	58.594
41.001	56.294
42.001	61.294
43.001	60.194
44.001	58.794
45.001	58.794
46.002	55.994
47.002	60.594
48.002	60.294
49.002	59.794
50.002	59.394
51.064	56.115
52.002	60.335
53.002	61.494
54.057	56.772
55.001	63.235
56.002	59.894
57.002	56.194
58.002	58.994
59.060	58.690
60.002	63.051
61.002	58.694
62.060	56.233
63.057	61.278
64.002	59.782
65.002	60.994
66.066	55.874
67.003	62.854
68.003	61.094
69.068	56.708
70.003	59.887
71.059	56.055
72.002	62.454
73.002	59.394
74.002	56.494
75.002	60.994
76.003	59.894
77.003	58.494
78.003	58.994
79.003	57.994
80.065	57.810
81.003	57.777
82.003	59.494
83.003	58.994
84.003	58.494
85.003	55.394
