Time [s]	Current [nA]
0.000	28.833
1.000	54.994
2.000	48.195
3.000	52.495
4.000	52.595
5.001	54.295
6.001	52.995
7.000	50.245
8.000	52.195
9.000	51.695
10.061	52.869
11.000	52.178
12.000	53.995
13.061	49.948
14.000	50.048
15.001	51.995
16.001	52.595
17.001	53.795
18.001	49.195
19.001	52.795
20.001	51.995
21.001	51.995
22.001	54.795
23.001	54.995
24.000	49.344
25.000	52.395
26.001	52.595
27.001	52.495
28.001	54.795
29.001	50.395
30.001	54.395
31.001	52.395
32.001	52.995
33.001	55.494
34.057	52.078
35.002	51.372
36.002	53.895
37.002	52.895
38.002	53.295
39.002	55.494
40.002	51.095
41.062	56.315
42.001	51.752
43.001	53.695
44.001	55.494
45.001	55.794
46.002	50.095
47.002	54.295
48.002	53.495
49.002	54.395
50.002	55.794
51.007	56.611
52.002	50.146
53.002	54.295
54.002	54.395
55.003	55.694
56.003	54.895
57.003	50.795
58.003	54.595
59.002	54.649
60.002	53.695
61.057	53.739
62.002	54.704
63.002	54.795
64.062	56.032
65.002	52.761
66.003	55.194
67.003	56.494
68.003	52.095
69.003	54.595
70.003	54.595
71.003	54.795
72.003	56.594
73.003	56.194
74.063	52.542
75.003	52.229
76.004	54.495
77.003	54.449
78.003	56.894
79.063	53.202
80.003	53.612
81.003	54.595
82.003	54.795
83.003	57.194
84.003	56.894
85.003	50.495
86.004	55.694
87.004	54.895
88.004	54.995
89.060	54.161
90.004	55.715
91.004	55.594
92.063	56.840
93.122	37.862
