Time [s]	Current [nA]
0.000	5.774
1.035	52.265
1.998	50.981
2.934	57.046
3.934	52.995
4.934	53.095
5.935	54.595
6.935	50.495
7.935	54.095
8.935	52.795
9.935	53.295
10.935	55.194
11.935	49.495
12.935	55.294
13.935	53.795
14.935	53.095
15.936	52.795
16.936	49.895
17.936	55.194
18.936	54.195
19.935	52.948
20.935	52.895
21.935	53.495
22.935	51.495
23.935	55.394
24.935	53.295
25.936	53.095
26.936	53.595
27.936	50.795
28.936	55.394
29.936	53.395
30.936	53.195
31.936	53.295
32.936	53.395
33.993	52.880
34.936	54.077
35.937	54.095
36.937	29.497
37.936	19.718
38.936	28.397
39.936	39.696
40.936	45.695
41.936	47.995
42.936	51.795
43.936	54.795
44.936	52.195
45.937	57.094
46.937	55.294
47.937	54.395
48.937	54.495
49.996	52.592
50.937	52.811
51.937	56.594
52.937	54.994
53.937	54.295
54.936	54.449
55.937	55.694
56.937	51.695
57.937	55.694
58.937	54.695
59.937	55.095
60.937	51.295
61.937	56.294
62.937	51.995
63.937	54.795
64.937	54.395
65.938	54.695
66.938	56.494
67.996	53.019
68.938	53.922
69.938	53.995
70.938	53.995
72.025	55.468
72.937	55.367
73.937	51.195
74.937	54.495
75.938	54.095
76.938	54.495
77.938	56.394
78.938	55.994
79.938	50.195
80.938	54.695
81.938	54.195
82.938	53.995
83.938	55.794
84.938	51.495
85.939	53.895
86.939	53.795
87.939	53.995
88.939	55.994
89.938	56.050
90.938	49.895
91.938	54.895
92.938	53.595
94.000	55.550
94.938	55.112
95.992	0.380
