Time [s]	Current [nA]
0.000	23.138
1.000	59.694
2.000	61.894
3.000	57.094
4.000	59.294
5.001	59.494
6.000	58.953
7.000	59.594
8.000	61.394
9.000	56.694
10.000	60.094
11.000	59.494
12.000	59.394
13.000	61.094
14.000	55.794
15.000	59.594
16.001	60.694
17.001	59.294
18.001	59.794
19.063	58.845
20.001	59.163
21.058	56.475
22.056	58.511
23.000	62.282
24.000	56.394
25.084	55.858
26.001	65.424
27.001	54.495
28.001	58.694
29.001	58.794
30.001	60.994
31.001	60.394
32.001	54.295
33.001	58.594
34.001	58.594
35.071	62.389
36.083	59.381
37.058	56.199
38.002	57.833
39.063	61.351
40.060	57.968
41.001	58.443
42.001	61.094
43.001	54.195
44.001	57.794
45.001	62.794
46.002	53.295
47.002	61.294
48.002	59.494
49.058	54.635
50.002	60.693
51.059	55.056
52.002	58.213
53.002	59.794
54.071	54.438
55.002	56.493
56.003	57.094
57.061	58.595
58.063	60.473
59.060	55.060
60.002	56.895
61.002	57.794
62.060	60.013
63.002	59.336
64.002	40.096
65.081	20.592
66.003	33.511
67.003	42.496
68.003	49.395
69.003	55.294
70.003	53.995
71.003	60.394
72.003	59.294
73.003	58.794
74.003	61.294
75.003	54.795
76.003	61.656
77.003	59.494
78.003	58.994
79.003	58.394
80.003	61.094
81.003	56.494
82.003	60.394
83.003	59.494
84.003	59.894
85.003	55.494
86.004	61.294
87.057	44.155
