Time [s]	Current [nA]
0.000	40.077
1.000	60.494
1.998	62.619
3.001	62.407
4.017	59.935
4.998	54.938
5.996	59.773
6.995	59.253
7.992	61.980
8.991	56.651
9.996	60.889
10.995	59.253
11.996	59.035
12.993	61.579
13.938	59.465
14.938	61.594
15.997	57.839
16.995	59.814
17.996	59.435
18.939	66.165
19.993	54.074
20.996	59.416
21.994	59.213
22.996	59.375
23.996	62.094
24.938	57.638
25.997	59.918
27.000	59.715
27.939	63.252
28.995	56.528
29.998	62.107
30.939	60.249
31.997	57.745
32.939	63.476
33.988	56.524
35.025	58.392
35.996	62.507
36.940	60.163
37.997	57.516
38.996	59.954
40.004	65.172
40.939	59.780
41.939	57.094
42.939	61.094
43.996	56.097
44.996	59.394
46.028	64.591
46.998	57.829
47.940	59.760
48.998	57.650
49.996	60.014
50.996	59.594
51.998	61.870
52.940	60.610
54.015	62.505
54.997	55.392
55.997	60.054
56.995	60.114
57.944	65.958
58.940	57.123
59.998	56.705
60.994	59.131
61.990	59.934
62.940	65.257
63.940	56.094
64.940	60.894
65.999	57.272
66.998	59.053
67.997	59.153
68.941	65.354
69.941	55.994
70.999	56.894
71.998	53.548
73.005	24.228
73.940	28.981
74.940	36.496
75.998	47.583
76.997	53.448
77.993	55.316
79.006	64.061
79.941	54.754
80.941	61.994
81.998	57.989
82.996	59.713
83.998	59.774
84.941	64.681
85.995	0.950
