Time [s]	Current [nA]
0.000	39.296
1.062	61.670
2.000	55.965
3.000	61.794
4.000	57.094
5.067	61.720
6.000	57.336
7.000	59.694
8.062	57.904
9.000	60.122
10.000	59.594
11.000	59.994
12.000	59.494
13.000	60.394
14.059	57.690
15.001	60.036
16.001	60.694
17.001	59.094
18.001	58.994
19.062	58.241
20.065	54.730
21.065	60.294
22.001	63.242
23.062	54.754
24.000	62.041
25.000	55.894
26.001	60.294
27.001	24.398
28.001	25.397
29.001	36.696
30.001	41.796
31.082	53.186
32.001	55.054
33.062	54.943
34.001	63.359
35.001	59.594
36.002	56.394
37.002	60.994
38.002	60.394
39.002	59.194
40.002	59.194
41.002	59.794
42.001	55.450
43.001	61.594
44.001	58.994
45.001	58.694
46.063	55.508
47.002	59.632
48.002	61.894
49.002	59.494
50.002	59.194
51.068	55.248
52.002	63.270
53.002	56.094
54.002	62.494
55.065	56.209
56.003	63.213
57.003	59.794
58.002	56.351
59.064	58.186
60.095	64.106
61.002	59.421
62.062	57.447
63.002	58.718
64.002	62.994
65.002	56.694
66.003	60.594
67.003	60.294
68.003	59.994
69.003	62.694
70.003	61.694
71.003	56.594
72.003	60.094
73.069	61.814
74.003	58.131
75.003	63.094
76.003	57.252
77.003	60.694
78.064	62.859
79.003	58.141
80.011	61.998
81.086	57.111
82.003	62.480
83.003	60.694
84.003	55.694
85.003	60.394
86.067	33.205
