Time [s]	Current [nA]
0.000	46.195
1.058	60.674
2.000	58.699
3.000	65.094
4.000	61.194
5.001	60.794
6.001	61.094
7.001	57.694
8.001	63.294
9.000	55.850
10.000	60.094
11.000	65.593
12.000	54.995
13.000	62.794
14.000	62.294
15.000	55.994
16.001	59.794
17.001	59.994
18.001	62.294
19.057	59.180
20.063	60.133
21.001	58.310
22.065	61.930
23.001	58.648
24.001	62.594
25.002	56.894
26.001	60.054
27.001	59.894
28.001	59.594
29.001	61.894
30.001	55.694
31.092	60.031
32.001	60.170
33.001	59.394
34.001	59.594
35.001	62.394
36.002	56.694
37.002	59.894
38.002	58.394
39.002	59.194
40.002	61.194
41.106	36.228
42.002	23.658
43.002	34.497
44.001	44.040
45.001	51.295
46.002	51.195
47.002	59.594
48.002	61.194
49.002	60.294
50.002	59.894
51.002	62.294
52.002	54.095
53.002	62.094
54.002	61.094
55.065	56.021
56.003	63.320
57.017	60.743
58.003	58.006
59.003	60.294
60.003	60.194
61.002	60.655
62.089	56.940
63.002	61.440
64.002	62.494
65.002	56.494
66.075	61.841
67.003	58.507
68.003	62.194
69.003	56.294
70.003	60.194
71.003	59.794
72.003	60.094
73.003	60.294
74.003	62.694
75.003	58.194
76.004	61.694
77.004	60.494
78.004	60.694
79.003	63.057
80.058	54.686
81.086	66.239
82.003	60.190
83.003	60.794
84.003	60.794
85.049	29.662
