Time [s]	Current [nA]
0.000	36.296
1.000	61.594
2.062	57.339
3.061	58.753
4.058	58.470
5.001	64.112
6.001	55.194
7.057	57.949
8.001	63.447
9.000	59.253
10.000	59.094
11.000	56.194
12.000	60.994
13.000	60.494
14.062	55.079
15.067	58.261
16.001	62.306
17.001	55.794
18.001	60.694
19.001	58.394
20.059	55.666
21.001	62.202
22.062	57.299
23.058	56.520
24.001	62.772
25.059	55.434
26.058	58.152
27.001	61.924
28.001	55.994
29.001	61.194
30.062	56.545
31.001	62.188
32.001	58.294
33.001	55.294
34.001	60.294
35.001	60.494
36.002	58.794
37.002	58.494
38.002	59.094
39.002	55.794
40.002	61.594
41.002	60.494
42.002	58.694
43.002	58.894
44.062	58.296
45.001	56.757
46.002	61.994
47.002	59.394
48.002	58.794
49.002	59.394
50.002	60.494
51.002	56.594
52.002	60.794
53.002	59.494
54.002	59.594
55.002	53.895
56.003	61.394
57.065	57.339
58.062	59.573
59.063	59.535
60.003	57.973
61.002	61.355
62.002	61.394
63.066	56.949
64.002	57.473
65.002	58.694
66.078	60.366
67.003	60.426
68.003	55.894
69.003	59.894
70.063	60.466
71.003	56.165
72.003	60.994
73.003	56.294
74.003	59.994
75.003	60.194
76.069	60.557
77.004	56.251
78.004	61.094
79.003	55.850
80.003	59.394
81.003	58.394
82.003	58.594
83.003	59.994
84.013	59.994
85.003	13.130
