Time [s]	Current [nA]
0.000	48.925
1.000	72.593
2.000	68.993
3.000	74.992
4.000	65.993
5.000	70.893
6.001	77.592
7.001	67.693
8.001	72.793
9.057	69.879
10.001	70.014
11.001	70.793
12.000	71.064
13.000	73.993
14.000	74.693
15.000	65.593
16.001	77.692
17.001	65.593
18.001	71.193
19.001	73.393
20.001	74.493
21.001	65.493
22.001	77.192
23.001	65.193
24.001	74.193
25.060	70.409
26.059	71.665
27.002	74.224
28.062	65.842
29.087	68.871
30.064	69.389
31.059	72.857
32.001	67.509
33.001	69.693
34.001	70.099
35.001	71.600
36.001	73.300
37.001	64.100
38.062	73.421
39.001	67.625
40.001	70.100
41.001	72.700
42.001	73.000
43.001	64.800
44.001	69.800
45.001	69.600
46.001	72.700
47.068	68.229
48.000	70.064
49.000	70.500
50.056	72.633
51.000	67.373
52.000	72.900
53.000	73.300
54.000	65.200
55.057	72.375
56.000	74.761
57.000	66.800
58.000	71.600
59.000	73.200
60.000	65.500
61.000	70.700
62.000	70.700
63.000	73.000
63.999	73.774
64.999	65.400
65.999	70.600
66.999	69.900
67.999	71.300
69.055	68.750
69.999	77.754
70.999	8.400
