Time [s]	Current [nA]
0.000	46.595
1.000	55.594
2.000	53.195
3.000	57.494
4.000	56.894
5.055	52.367
6.001	58.345
7.001	55.894
8.001	53.395
9.001	57.594
10.001	56.994
11.001	54.994
12.001	55.194
13.001	57.994
14.000	53.048
15.001	56.094
16.064	52.770
17.063	55.950
18.001	60.122
19.063	56.115
20.060	52.653
21.013	59.595
22.062	53.760
23.001	53.136
24.001	57.394
25.002	57.094
26.002	51.895
27.067	58.304
28.002	53.578
29.064	57.904
30.061	52.452
31.001	56.909
32.001	55.694
33.001	55.194
34.001	55.494
35.002	57.794
36.002	51.195
37.002	57.694
38.002	56.294
39.002	55.394
40.002	55.694
41.002	53.595
42.002	58.394
43.070	52.710
44.002	53.965
45.057	57.300
46.098	55.710
47.003	55.022
48.062	53.913
49.002	54.356
50.002	59.794
51.002	49.995
52.002	56.394
53.002	56.994
54.002	51.395
55.003	55.394
56.003	60.594
57.003	51.095
58.003	58.394
59.003	42.296
60.003	49.595
61.003	54.895
62.004	60.434
63.065	55.037
64.061	52.304
65.003	54.453
66.003	56.651
67.003	54.195
68.003	54.395
69.003	57.994
70.003	52.795
71.003	56.694
72.003	54.995
73.003	54.994
74.003	57.394
75.003	53.295
76.004	56.494
77.004	57.094
78.004	56.594
79.004	52.095
80.004	58.594
81.063	55.707
82.065	56.881
83.004	54.734
84.003	56.451
85.003	57.994
86.096	52.925
87.004	63.650
88.004	52.595
89.004	56.594
90.004	26.997
