Time [s]	Current [nA]
0.000	4.864
1.093	73.277
2.000	73.201
3.000	72.293
4.000	71.093
5.064	41.294
6.000	32.262
7.000	46.495
8.000	51.995
9.000	62.794
10.000	65.693
11.094	72.845
12.066	66.043
13.000	72.584
14.000	71.293
15.000	71.193
16.001	70.693
17.001	73.393
18.001	66.893
19.001	70.893
20.001	70.193
21.001	70.593
22.001	70.993
23.066	70.228
24.000	71.192
25.000	65.793
26.063	71.933
27.001	68.330
28.001	72.993
29.001	72.793
30.001	64.294
31.001	72.593
32.062	73.697
33.001	67.192
34.001	72.793
35.001	66.793
36.059	67.165
37.002	74.330
38.002	69.793
39.002	72.593
40.002	65.093
41.001	71.364
42.001	69.893
43.057	65.524
44.001	74.145
45.001	66.193
46.059	69.056
47.002	74.330
48.002	69.093
49.002	69.793
50.002	65.293
51.002	69.593
52.002	72.593
53.002	70.793
54.064	65.342
55.002	73.660
56.003	65.293
57.061	68.046
58.003	74.196
59.002	69.262
60.060	66.061
61.002	68.040
62.002	71.693
63.002	71.393
64.002	70.093
65.002	63.494
66.003	69.493
67.003	72.593
68.003	66.093
69.003	70.093
70.064	71.435
71.064	69.493
72.104	66.916
73.003	72.963
74.003	8.099
