Time [s]	Current [nA]
0.000	16.070
1.000	52.795
2.084	48.888
3.000	52.178
4.000	53.695
5.000	51.947
6.000	51.095
7.000	32.897
8.000	14.499
9.000	24.698
10.000	33.197
11.000	40.796
12.000	43.596
13.000	51.295
14.000	51.495
15.001	55.094
16.001	53.095
17.001	52.695
18.001	52.595
19.001	54.795
20.001	49.995
21.001	52.895
22.063	50.183
23.000	55.811
24.000	51.795
25.063	51.125
26.001	51.487
27.008	51.733
28.001	46.924
29.001	50.795
30.001	52.695
31.001	52.995
32.001	51.295
33.001	46.895
34.001	50.995
35.061	52.025
36.002	50.686
37.002	48.595
38.057	53.075
39.002	48.990
40.001	50.846
41.001	52.395
42.001	51.395
43.001	52.395
44.001	46.495
45.001	50.495
46.002	51.395
47.002	52.495
48.002	53.095
49.062	48.391
50.002	47.548
51.002	50.095
52.002	51.395
53.002	51.895
54.002	48.895
55.064	52.492
56.003	48.664
57.003	55.294
58.002	48.744
59.002	53.395
60.064	49.242
61.002	48.822
62.058	51.510
63.002	48.512
64.002	53.695
65.064	49.477
66.003	50.155
67.003	50.395
68.003	54.195
69.066	50.136
70.062	47.284
71.003	48.560
72.068	51.920
73.003	48.230
74.003	49.995
75.002	52.547
76.003	52.395
77.060	48.529
78.003	48.033
79.003	50.195
80.065	53.949
81.003	49.888
82.007	50.692
83.068	48.157
84.003	48.551
85.067	51.641
86.060	47.327
87.065	51.836
88.004	49.516
89.062	52.074
90.004	53.286
91.004	47.595
92.087	46.071
93.003	51.851
94.065	51.690
95.062	49.493
96.004	47.554
97.004	51.895
98.004	51.295
99.004	46.595
100.004	49.595
101.004	23.198
