Time [s]	Current [nA]
0.000	51.734
1.000	65.593
2.000	69.993
3.000	68.193
4.000	68.193
5.096	69.126
6.001	71.264
7.062	67.006
8.062	69.393
9.000	65.985
10.000	68.593
11.000	71.193
12.000	70.893
13.000	63.694
14.000	69.593
15.000	68.093
16.001	68.393
17.001	70.993
18.001	70.693
19.001	64.094
20.001	68.893
21.001	68.893
22.001	71.393
23.058	67.827
24.001	67.013
25.001	69.593
26.062	71.031
27.001	66.341
28.001	71.093
29.059	67.196
30.001	68.040
31.001	68.593
32.001	68.793
33.001	71.093
34.083	65.890
35.001	70.363
36.062	72.068
37.061	68.562
38.002	66.731
39.064	73.910
40.061	65.490
41.002	68.750
42.060	71.354
43.001	66.625
44.001	34.097
45.001	35.296
46.063	48.157
47.002	56.011
48.002	63.294
49.002	65.393
50.002	71.193
51.061	68.171
52.002	69.069
53.002	68.693
54.002	68.693
55.094	69.746
56.061	67.522
57.003	70.163
58.003	69.993
59.003	68.893
60.003	68.993
61.002	70.463
62.002	71.693
63.002	63.694
64.002	69.493
65.002	69.193
66.060	71.138
67.065	72.729
68.003	69.396
69.003	64.494
70.003	68.793
71.003	69.193
72.059	68.838
73.003	75.946
74.003	32.697
