Time [s]	Current [nA]
0.000	22.414
1.000	68.393
2.000	68.393
3.055	66.534
4.000	74.172
4.999	62.656
6.000	67.393
7.000	67.693
8.000	69.193
9.000	70.593
10.000	62.294
11.062	68.637
12.000	65.132
13.000	67.493
14.000	70.293
15.000	63.894
16.001	68.193
17.001	67.093
18.001	67.293
19.001	69.993
20.001	64.194
21.001	67.893
22.000	68.362
23.000	67.193
24.000	66.993
25.000	69.793
26.001	63.394
27.059	69.936
28.001	64.219
29.001	67.093
30.001	69.393
31.001	69.393
32.001	62.194
33.001	67.993
34.001	66.793
35.001	67.093
36.002	70.093
37.002	69.693
38.063	65.592
39.002	64.424
40.001	67.261
41.001	69.493
42.001	68.293
43.063	66.472
44.066	67.590
45.001	64.165
46.002	66.993
47.002	69.793
48.002	64.294
49.002	67.893
50.063	68.513
51.002	64.850
52.002	67.593
53.060	58.028
54.002	30.039
55.002	38.796
56.064	52.021
57.002	57.244
58.002	64.694
59.002	65.393
60.002	62.894
61.002	67.493
62.002	67.993
63.002	67.993
64.002	71.093
65.002	64.194
66.003	67.893
67.003	67.493
68.003	67.593
69.003	70.193
70.003	70.293
71.080	63.132
72.003	67.274
73.064	68.890
74.064	67.693
75.002	69.076
76.003	33.997
