Time [s]	Current [nA]
0.000	62.794
1.000	67.193
2.000	67.093
3.000	63.694
3.999	68.562
4.999	65.793
6.000	65.593
7.000	65.493
8.000	61.694
9.000	67.093
10.000	65.493
11.000	66.093
12.000	64.993
13.000	64.993
14.000	62.094
15.000	67.293
16.001	64.993
17.001	64.993
18.001	64.894
19.001	60.894
20.001	65.993
21.060	62.222
22.000	68.823
23.000	63.494
24.000	63.794
25.000	60.994
26.001	66.293
27.001	65.893
28.001	64.294
29.001	64.394
30.001	60.394
31.001	64.094
32.001	67.393
33.001	64.894
34.001	63.594
35.001	64.194
36.002	61.294
37.002	66.893
38.002	65.393
39.001	64.358
40.058	60.353
41.001	70.088
42.001	59.894
43.059	63.604
44.063	65.233
45.001	68.543
46.002	63.994
47.002	61.294
48.063	69.456
49.002	63.359
50.002	64.294
51.002	64.994
52.002	65.893
53.002	61.294
54.059	64.137
55.064	65.830
56.064	65.093
57.002	69.609
58.002	67.193
59.002	62.494
60.002	65.993
61.002	66.293
62.002	65.393
63.002	64.794
64.063	65.592
65.002	65.382
66.003	66.493
67.003	65.393
68.003	65.493
69.058	57.909
70.003	27.405
71.085	37.057
72.003	47.381
73.003	56.094
74.002	61.155
75.002	59.494
76.003	68.493
77.003	67.093
78.071	39.977
