Time [s]	Current [nA]
0.000	37.426
0.934	53.207
1.934	50.495
2.934	53.195
3.934	53.395
4.934	52.995
5.934	53.448
6.934	55.194
7.934	50.595
8.934	53.295
9.934	52.895
10.934	53.195
11.934	54.994
12.934	49.195
13.934	53.795
14.934	53.895
15.935	53.395
16.935	53.495
17.935	55.594
18.935	50.795
19.935	54.295
20.935	53.495
21.935	53.395
22.935	55.494
23.934	54.349
24.934	50.299
25.934	53.500
26.934	53.200
27.934	53.300
28.934	55.000
29.934	55.500
30.934	49.600
31.934	53.900
32.934	53.700
33.934	54.500
34.934	54.700
35.934	51.500
36.934	54.200
37.934	53.600
38.934	53.600
39.992	52.268
40.933	54.729
41.933	54.900
42.998	56.056
43.933	52.086
44.933	55.000
45.933	51.700
46.933	56.200
47.933	54.800
48.933	54.300
49.933	54.100
50.933	51.900
51.933	56.200
52.933	52.300
53.933	23.300
54.996	26.435
55.933	41.089
56.933	43.000
57.998	53.239
58.994	47.892
59.932	57.889
60.932	54.700
61.932	51.700
62.932	55.800
63.932	56.100
64.932	55.500
65.932	55.100
66.932	50.100
67.932	56.600
68.932	57.100
69.932	50.800
70.932	55.100
71.932	54.600
72.989	53.642
73.932	58.537
74.932	51.900
75.984	20.057
