Time [s]	Current [nA]
0.000	8.071
1.000	62.094
2.059	63.166
3.000	62.799
4.000	62.694
5.062	65.121
6.055	60.618
7.001	63.524
8.001	63.794
9.001	63.594
10.001	62.394
11.001	63.094
12.001	65.493
13.001	64.794
14.001	57.794
15.062	64.333
16.002	59.781
17.059	60.259
18.001	68.146
19.001	57.894
20.001	62.394
21.001	61.794
22.001	62.494
23.063	66.754
24.063	59.094
25.001	62.041
26.002	62.194
27.002	61.294
28.061	36.351
29.002	43.248
30.002	48.895
31.002	58.894
32.002	62.394
33.002	64.194
34.002	67.193
35.001	66.960
36.002	60.494
37.002	64.494
38.002	65.094
39.002	65.393
40.002	67.693
41.002	61.994
42.002	65.393
43.002	65.593
44.002	66.293
45.002	61.994
46.003	67.893
47.003	65.793
48.003	64.894
49.003	64.894
50.079	60.589
51.003	68.067
52.002	67.261
53.002	65.093
54.002	64.394
55.002	65.093
56.003	61.994
57.052	64.627
58.003	68.237
59.003	65.393
60.003	64.694
61.003	64.594
62.063	63.673
63.003	65.100
64.003	66.293
65.003	64.594
66.004	64.394
67.004	60.994
68.004	65.393
69.004	67.393
70.003	64.758
71.003	64.294
72.003	63.994
73.003	66.593
74.003	61.194
75.003	66.293
76.004	64.294
77.004	63.894
78.004	58.994
79.088	65.492
80.004	10.261
