Time [s]	Current [nA]
0.000	60.655
1.000	62.794
2.062	61.011
3.000	61.934
4.000	62.594
5.000	61.994
6.001	61.994
7.001	64.194
8.001	63.094
9.001	58.394
10.001	62.294
11.001	61.594
12.001	61.594
13.000	64.458
14.000	57.694
15.000	61.994
16.001	61.894
17.001	61.794
18.001	63.294
19.001	58.494
20.056	60.563
21.001	66.766
22.001	62.094
23.001	62.694
24.001	59.094
25.060	61.052
26.002	66.660
27.002	61.594
28.002	61.794
29.002	62.094
30.002	59.694
31.001	64.458
32.063	59.693
33.001	59.802
34.001	61.894
35.001	64.594
36.002	58.294
37.002	62.394
38.002	63.094
39.002	62.794
40.002	62.294
41.002	58.694
42.002	62.994
43.057	59.236
44.002	65.708
45.002	62.094
46.003	63.794
47.003	56.594
48.002	64.358
49.002	61.894
50.059	58.934
51.002	61.182
52.002	35.996
53.002	47.695
54.002	56.194
55.002	60.294
56.061	58.312
57.003	61.459
58.003	62.094
59.003	63.594
60.003	61.194
61.003	55.694
62.003	60.894
63.003	63.194
64.003	62.894
65.003	55.594
66.003	60.054
67.003	65.493
68.090	56.204
69.003	62.973
70.003	63.394
71.003	57.294
72.003	61.494
73.003	61.794
74.003	64.494
75.003	58.294
76.004	61.394
77.064	58.013
78.004	65.525
79.004	60.894
80.004	57.994
81.004	63.394
82.004	12.499
