Time [s]	Current [nA]
0.000	54.995
1.000	56.794
2.000	61.094
3.000	53.995
4.000	58.594
5.001	58.694
6.062	63.424
7.001	58.780
8.001	53.695
9.001	60.394
10.001	58.294
11.001	57.494
12.001	59.494
13.001	55.294
14.001	58.594
15.002	57.994
16.001	58.853
17.001	60.994
18.001	60.394
19.001	54.895
20.001	58.994
21.001	58.294
22.001	58.894
23.001	60.894
24.001	61.094
25.061	56.274
26.002	56.211
27.002	58.394
28.083	61.788
29.002	56.469
30.002	54.995
31.002	58.594
32.064	59.693
33.061	58.570
34.001	58.718
35.002	60.694
36.002	53.495
37.002	58.094
38.002	57.994
39.002	58.094
40.002	60.694
41.002	60.194
42.002	53.795
43.002	57.994
44.002	57.794
45.066	62.364
46.003	58.906
47.003	53.295
48.003	59.194
49.003	58.394
50.064	59.561
51.002	59.269
52.002	55.694
53.002	58.494
54.002	58.194
55.002	63.594
56.003	55.894
57.003	59.994
58.003	54.395
59.003	59.194
60.064	59.184
61.003	56.011
62.003	60.594
63.059	57.665
64.003	57.198
65.003	58.594
66.004	58.294
67.004	60.194
68.106	59.522
69.003	51.946
70.003	58.294
71.062	59.862
72.003	56.211
73.003	60.594
74.003	60.594
75.003	53.895
76.004	58.194
77.004	58.094
78.004	59.294
79.004	51.795
80.004	34.797
81.004	47.295
82.064	56.315
83.004	56.271
84.004	61.494
85.059	57.964
86.116	30.366
