Time [s]	Current [nA]
0.000	6.423
1.000	65.293
2.000	64.894
3.000	67.293
3.999	62.156
4.999	65.993
6.000	65.993
7.000	65.193
8.000	65.293
9.062	63.082
10.000	65.878
11.000	65.193
12.000	64.294
13.000	64.194
14.000	66.493
15.000	59.194
16.001	66.793
17.001	64.394
18.001	63.994
19.001	64.094
20.001	60.494
21.001	66.093
22.058	61.867
23.000	67.721
24.058	60.296
25.000	63.157
26.001	65.693
27.001	67.593
28.058	60.732
29.001	68.074
30.058	61.489
31.001	64.257
32.001	66.693
33.001	65.493
34.001	63.894
35.001	64.894
36.002	64.494
37.002	61.294
38.002	67.293
39.001	65.459
40.001	48.895
41.001	41.296
42.001	50.695
43.001	63.694
44.001	66.293
45.001	65.893
46.002	64.794
47.002	64.294
48.002	61.394
49.058	62.872
50.002	69.802
51.002	64.694
52.002	64.694
53.002	66.793
54.060	58.123
55.002	69.208
56.003	64.494
57.002	64.358
58.002	63.994
59.002	61.094
60.002	66.693
61.002	65.493
62.002	64.494
63.002	64.694
64.004	66.860
65.075	64.480
66.003	63.032
67.003	64.694
68.003	63.594
69.003	63.994
70.003	66.193
71.003	61.094
72.061	62.659
73.003	69.314
74.002	65.559
75.002	61.194
76.003	65.493
77.060	63.759
78.003	68.604
79.003	12.799
