Time [s]	Current [nA]
0.000	12.858
1.000	54.395
2.000	54.595
3.000	55.694
4.000	48.795
5.000	56.494
6.001	54.695
7.001	53.695
8.000	54.249
9.000	51.595
10.000	56.594
11.000	54.895
12.000	54.295
13.000	53.895
14.000	49.395
15.000	56.294
16.001	56.194
17.001	49.695
18.063	54.797
19.001	51.914
20.001	55.494
21.060	52.592
22.001	51.536
23.001	53.995
24.001	53.595
25.000	53.348
26.001	56.194
27.001	50.895
28.063	56.397
29.001	50.635
30.001	52.995
31.001	54.895
32.001	50.695
33.001	53.895
34.062	50.985
35.001	56.118
36.002	52.495
37.062	51.504
38.002	53.931
39.002	53.595
40.002	52.995
41.002	53.695
42.001	50.846
43.001	53.195
44.001	54.695
45.001	53.195
46.002	51.795
47.002	52.295
48.064	52.349
49.002	52.234
50.002	48.395
51.002	52.195
52.002	52.195
53.002	52.995
54.073	50.228
55.002	54.569
56.003	53.395
57.003	53.295
58.003	52.595
59.003	54.695
60.002	50.445
61.002	53.395
62.056	49.710
63.002	55.808
64.002	52.295
65.002	50.595
66.003	54.695
67.003	52.695
68.003	51.995
69.003	52.495
70.064	52.021
71.003	52.284
72.003	52.395
73.003	48.395
74.067	54.506
75.003	50.636
76.004	55.194
77.003	49.645
78.003	52.895
79.003	52.095
80.003	52.395
81.061	51.696
82.003	53.179
83.003	57.594
84.003	57.694
85.066	53.384
86.004	60.655
87.004	54.295
88.004	58.994
89.004	52.595
90.004	56.794
91.004	56.894
92.004	58.694
93.004	56.494
94.004	28.597
