Time [s]	Current [nA]
0.000	19.078
1.000	56.194
2.000	58.994
3.000	57.694
4.000	52.695
4.999	57.151
6.000	59.294
7.000	59.294
8.000	53.095
9.000	56.894
10.061	58.807
11.000	56.757
12.000	57.294
13.000	54.495
14.000	56.894
15.000	56.494
16.001	56.494
17.001	59.194
18.001	53.195
19.057	58.327
20.001	54.550
21.001	56.394
22.001	56.694
23.057	55.203
24.060	57.621
25.067	43.336
26.067	34.597
27.067	45.095
28.063	48.991
29.057	57.238
30.064	56.300
31.062	55.305
32.066	53.979
33.070	54.875
34.063	52.261
35.058	56.835
36.063	54.920
37.063	54.195
38.063	54.695
39.058	51.955
40.001	55.138
41.001	54.895
42.001	55.494
43.001	54.795
44.001	54.295
45.001	56.794
46.002	51.495
47.063	52.021
48.002	57.502
49.002	54.195
50.002	50.995
51.002	54.495
52.002	56.094
53.065	50.983
54.002	56.771
55.002	53.695
56.065	52.066
57.003	54.259
58.002	54.349
59.002	53.295
60.002	52.895
61.074	50.928
62.075	54.440
63.002	54.364
64.002	53.995
65.002	53.095
66.061	50.184
67.062	55.439
68.003	53.767
69.003	54.095
70.003	53.095
71.003	52.895
72.003	53.795
73.003	50.795
74.003	55.694
75.002	53.248
76.003	53.095
77.003	53.095
78.068	52.201
79.003	53.257
80.003	54.195
81.003	54.195
82.007	53.381
83.003	48.991
84.003	54.595
85.003	54.695
86.004	48.695
87.004	52.195
88.004	53.295
89.004	55.294
90.004	55.394
91.004	49.195
92.070	54.873
93.003	10.824
