Time [s]	Current [nA]
0.000	20.245
1.000	49.895
2.000	53.695
3.000	56.194
4.000	53.495
5.000	53.195
6.001	52.795
7.001	54.095
8.001	50.095
9.001	53.895
10.056	50.232
11.056	53.795
12.000	57.198
13.000	50.795
14.000	56.194
15.000	54.195
16.001	52.895
17.001	53.295
18.001	50.895
19.001	55.394
20.001	54.795
21.058	50.988
22.001	57.258
23.001	54.495
24.052	53.848
25.001	54.789
26.002	55.094
27.002	53.895
28.064	51.219
29.001	54.210
30.001	55.494
31.001	53.695
32.001	54.695
33.001	54.195
34.058	51.367
35.001	54.607
36.002	56.494
37.059	51.840
38.002	57.152
39.002	53.495
40.002	55.394
41.002	49.495
42.002	55.894
43.002	54.095
44.002	53.395
45.002	53.995
46.059	53.309
47.002	53.441
48.002	54.495
49.002	53.895
50.002	54.095
51.002	55.594
52.002	49.495
53.002	55.894
54.002	54.095
55.002	53.495
56.003	52.895
57.003	55.894
58.003	50.995
59.003	54.495
60.003	53.395
61.003	53.495
62.003	53.495
63.002	51.346
64.057	53.265
65.002	57.560
66.061	49.995
67.003	56.470
68.062	52.214
69.003	53.767
70.003	54.395
71.003	52.995
72.003	53.295
73.003	53.295
74.003	50.695
75.066	57.151
76.004	52.340
77.004	53.595
78.004	53.695
79.004	50.395
80.066	57.339
81.003	51.222
82.003	54.195
83.003	48.395
84.003	52.695
85.062	52.169
86.004	58.168
87.004	48.395
88.004	52.895
89.004	53.195
90.004	54.795
91.004	54.495
92.004	49.795
93.004	52.595
94.004	5.399
