Time [s]	Current [nA]
0.000	20.183
1.000	54.195
2.000	53.095
3.000	53.695
4.000	50.795
5.000	55.194
6.001	53.495
7.058	50.515
8.001	56.410
9.062	52.021
10.000	52.447
11.000	52.995
12.000	53.095
13.000	53.495
14.000	48.895
15.000	55.394
16.001	50.795
17.001	53.595
18.001	53.195
19.001	53.095
20.001	55.394
21.001	54.395
22.001	49.795
23.001	54.195
24.001	49.295
25.001	34.997
26.002	44.896
27.002	52.695
28.001	49.845
29.001	54.695
30.066	55.863
31.084	54.317
32.001	51.576
33.001	49.795
34.001	53.295
35.001	52.695
36.002	52.295
37.002	54.695
38.002	50.195
39.002	53.495
40.063	54.566
41.002	50.900
42.002	53.095
43.002	55.394
44.002	49.895
45.001	53.548
46.002	52.495
47.002	52.395
48.002	53.895
49.002	50.495
50.002	53.195
51.002	54.295
52.002	52.695
53.063	54.283
54.002	52.817
55.002	50.495
56.003	54.195
57.003	53.195
58.003	53.695
59.003	55.094
60.003	54.795
61.003	53.295
62.065	50.748
63.002	50.902
64.002	52.495
65.002	55.294
66.059	51.699
67.003	52.008
68.064	55.037
69.003	51.007
70.003	54.295
71.003	53.595
72.003	49.795
73.003	53.195
74.003	52.895
75.003	52.795
76.004	54.495
77.004	49.595
78.004	52.995
79.004	51.995
80.003	51.947
81.003	52.995
82.003	52.395
83.069	50.839
84.003	51.173
85.003	52.195
86.056	50.280
87.004	57.484
88.066	52.066
89.004	51.381
90.004	52.095
91.004	52.595
92.004	52.895
93.004	50.295
94.004	54.795
95.004	48.895
