Time [s]	Current [nA]
0.000	48.817
1.000	52.995
2.062	51.690
3.058	52.806
4.000	55.302
5.002	52.243
6.001	49.445
7.060	51.364
8.001	51.536
9.001	52.795
10.067	55.904
11.000	50.477
12.000	54.695
13.061	52.775
14.056	47.834
15.056	51.246
16.057	52.143
17.001	57.092
18.001	49.995
19.001	53.095
20.063	50.372
21.063	53.195
22.001	56.284
23.001	50.995
24.001	55.094
25.002	53.295
26.002	53.395
27.002	48.195
28.064	56.492
29.060	48.991
30.071	52.319
31.059	54.347
32.001	50.101
33.001	52.195
34.001	53.895
35.001	54.495
36.002	48.495
37.002	57.594
38.061	50.231
39.002	53.661
40.090	49.903
41.002	58.876
42.002	48.695
43.002	52.595
44.002	52.595
45.003	54.195
46.002	50.646
47.002	53.195
48.002	52.695
49.002	53.395
50.002	55.294
51.002	53.295
52.063	52.587
53.002	52.497
54.002	53.195
55.002	52.995
56.003	55.094
57.003	50.095
58.003	53.495
59.058	50.232
60.003	56.185
61.003	53.795
62.003	54.895
63.003	50.295
64.002	53.848
65.002	52.895
66.003	52.595
67.003	54.895
68.003	50.295
69.003	53.795
70.003	53.295
71.003	52.495
72.003	53.595
73.003	50.895
74.003	54.395
75.003	52.895
76.062	49.428
77.004	56.045
78.004	50.095
79.063	52.025
80.007	56.350
81.003	49.091
82.003	52.395
83.003	52.395
84.003	54.095
85.003	49.495
86.004	52.795
87.004	52.695
88.004	51.895
89.004	53.995
90.004	48.195
91.004	54.495
92.004	53.095
93.004	52.795
94.004	52.495
95.004	10.899
