Time [s]	Current [nA]
0.000	27.545
1.000	53.595
2.000	52.795
3.000	52.295
4.000	55.694
5.001	50.395
6.001	53.795
7.001	53.495
8.001	53.195
9.064	51.641
10.001	57.198
11.001	50.595
12.001	52.395
13.000	52.547
14.000	52.595
15.000	54.695
16.001	49.395
17.001	52.395
18.001	52.595
19.001	53.095
20.001	52.395
21.001	55.194
22.057	52.267
23.001	51.584
24.063	54.703
25.002	51.274
26.002	55.194
27.002	50.295
28.002	53.695
29.002	53.395
30.002	52.795
31.001	52.747
32.001	55.394
33.001	55.594
34.001	50.095
35.001	53.995
36.002	53.895
37.002	55.794
38.002	50.195
39.074	55.591
40.002	53.443
41.002	53.195
42.002	53.295
43.002	55.094
44.002	50.795
45.003	54.095
46.065	55.738
47.003	52.127
48.060	52.691
49.091	53.050
50.002	54.660
51.002	53.695
52.002	53.295
53.002	53.695
54.002	55.594
55.002	55.494
56.003	49.395
57.003	54.095
58.003	54.395
59.003	54.695
60.003	54.595
61.003	50.795
62.067	54.976
63.065	52.500
64.003	50.528
65.003	54.595
66.058	52.841
67.003	52.270
68.003	53.895
69.003	53.795
70.083	55.087
71.003	54.125
72.003	50.195
73.003	54.395
74.065	54.420
75.003	50.635
76.004	54.095
77.004	50.295
78.004	53.195
79.004	53.695
80.004	52.695
81.004	52.995
82.004	55.494
83.003	50.145
84.003	53.995
85.003	52.295
86.004	52.695
87.004	54.395
88.007	54.132
89.004	48.240
90.004	52.595
91.004	52.595
92.004	52.495
93.004	54.595
94.054	30.473
