Time [s]	Current [nA]
0.000	27.909
1.000	54.095
2.000	57.794
3.060	59.805
4.000	54.675
5.057	56.150
6.001	63.023
7.000	52.647
8.059	58.540
9.057	56.507
10.000	54.714
11.000	59.994
12.000	53.695
13.000	57.294
14.000	56.694
15.061	58.296
16.001	55.952
17.001	58.694
18.001	56.594
19.001	52.495
20.001	56.294
21.067	57.687
22.001	56.204
23.001	58.094
24.000	52.347
25.001	55.994
26.001	55.194
27.001	57.894
28.001	57.694
29.001	51.795
30.001	55.294
31.001	55.294
32.001	54.195
33.062	59.184
34.059	52.051
35.002	54.453
36.002	53.895
37.002	54.895
38.002	56.494
39.002	55.394
40.002	51.395
41.002	54.695
42.001	54.549
43.001	54.495
44.001	56.294
45.001	55.394
46.002	50.095
47.002	53.895
48.002	53.695
49.084	57.018
50.002	52.718
51.002	50.695
52.067	56.239
53.002	51.760
54.002	53.495
55.003	56.094
56.003	55.794
57.003	49.895
58.063	54.712
59.002	50.581
60.002	53.595
61.002	55.994
62.058	51.699
63.002	51.902
64.002	53.295
65.002	53.095
66.003	55.094
67.058	52.696
68.003	51.635
69.003	54.195
70.003	53.495
71.003	52.595
72.003	55.494
73.003	54.295
74.069	50.933
75.070	53.195
76.004	50.744
77.003	53.949
78.003	54.795
79.003	48.795
80.003	54.195
81.003	52.695
82.003	52.695
83.003	55.094
84.003	54.695
85.003	49.595
86.004	53.195
87.004	51.695
88.004	53.795
89.004	53.995
90.004	48.595
91.004	52.495
92.004	19.598
