Time [s]	Current [nA]
0.000	48.295
1.000	50.695
2.000	54.994
3.000	53.495
4.055	49.948
5.056	52.595
6.001	58.089
7.001	49.595
8.001	53.695
9.001	52.895
10.001	52.095
11.056	49.568
12.001	53.116
13.001	54.695
14.001	53.095
15.002	51.795
16.001	52.047
17.001	53.695
18.001	47.095
19.001	53.595
20.001	51.895
21.059	48.955
22.001	54.878
23.001	49.395
24.001	54.395
25.059	49.569
26.002	56.410
27.002	55.095
28.002	56.894
29.002	51.395
30.059	54.394
31.002	58.849
32.002	54.795
33.058	52.267
34.001	55.350
35.002	57.394
36.059	52.502
37.002	58.319
38.002	55.194
39.002	54.695
40.065	54.651
41.002	55.384
42.002	55.494
43.002	54.995
44.002	55.094
45.003	56.994
46.003	52.595
47.003	55.994
48.003	55.794
49.003	54.795
50.003	54.995
51.002	52.647
52.002	57.594
53.064	52.820
54.058	54.824
55.059	54.994
56.003	55.079
57.003	56.394
58.003	55.894
59.003	55.994
60.003	54.595
61.003	54.495
62.007	55.971
63.003	52.304
64.003	55.594
65.062	51.696
66.004	58.487
67.058	53.695
68.003	52.905
69.003	56.794
70.059	51.699
71.003	57.409
72.059	51.131
73.003	58.998
74.003	51.495
75.003	55.494
76.004	53.995
77.004	54.495
78.004	55.694
79.004	49.395
80.004	56.294
81.004	54.395
82.004	53.295
83.004	53.795
84.004	50.995
85.004	54.895
86.064	51.836
87.066	53.288
88.066	53.495
89.004	57.457
90.004	50.495
91.004	55.394
92.004	45.195
