Time [s]	Current [nA]
0.000	8.582
1.065	48.352
2.009	48.300
3.000	46.918
4.000	49.495
5.064	49.478
6.001	46.100
7.001	48.395
8.001	49.695
9.001	45.695
10.057	46.776
11.056	48.844
12.062	54.170
13.001	49.409
14.063	49.148
15.078	49.305
16.001	48.424
17.001	49.595
18.001	49.295
19.057	44.030
20.001	53.808
21.001	45.495
22.001	52.695
23.001	44.096
24.001	50.095
25.001	50.295
26.002	50.295
27.002	45.096
28.059	50.421
29.002	47.609
30.060	48.861
31.002	55.302
32.001	46.041
33.001	53.795
34.001	45.395
35.001	51.295
36.087	51.792
37.002	49.831
38.002	46.095
39.061	51.270
40.002	47.817
41.064	53.479
42.002	49.569
43.002	45.195
44.002	49.495
45.002	53.895
46.102	47.038
47.003	50.938
48.003	52.195
49.003	45.695
50.002	49.445
51.002	49.795
52.064	53.479
53.002	50.208
54.002	45.795
55.062	50.137
56.003	51.855
57.102	44.491
58.003	51.604
59.003	46.095
60.003	49.595
61.003	48.995
62.003	23.098
63.003	22.598
64.003	31.997
65.003	35.396
66.069	45.441
67.003	43.679
68.003	48.395
69.003	51.895
70.003	51.095
71.003	45.895
72.003	49.395
73.060	51.083
74.061	48.047
75.074	50.588
76.004	49.027
77.004	49.695
78.004	49.095
79.004	48.795
80.004	49.995
81.004	50.595
82.062	47.349
83.004	47.660
84.004	53.395
85.003	46.642
86.004	50.095
87.057	49.283
88.063	49.299
89.004	47.392
90.004	53.695
91.004	47.695
92.004	52.095
93.004	46.195
94.004	50.395
95.004	49.895
96.005	49.295
97.005	50.795
98.005	51.195
99.016	49.649
100.066	47.900
101.005	47.706
102.004	51.947
103.004	51.495
104.057	9.591
