Time [s]	Current [nA]
0.000	13.349
1.000	44.796
2.000	51.695
3.000	52.295
4.000	46.195
5.001	50.395
6.001	49.395
7.001	49.895
8.057	49.616
9.060	51.740
10.000	49.250
11.000	50.895
12.000	50.295
13.057	50.515
14.000	54.077
15.001	47.295
16.001	50.095
17.001	49.895
18.001	49.795
19.001	51.095
20.001	51.995
21.001	46.695
22.001	49.795
23.063	50.937
24.001	49.355
25.002	50.695
26.001	47.343
27.001	49.495
28.001	48.395
29.001	49.595
30.055	48.857
31.001	54.963
32.001	46.095
33.061	51.127
34.001	47.761
35.002	49.295
36.002	51.295
37.002	50.895
38.002	45.995
39.066	50.841
40.002	47.858
41.002	49.795
42.002	46.995
43.085	49.764
44.001	49.231
45.001	48.195
46.062	50.938
47.002	49.570
48.002	45.595
49.067	51.075
50.002	47.268
51.002	49.595
52.002	50.595
53.063	47.969
54.002	47.812
55.003	49.595
56.003	47.795
57.003	48.895
58.003	50.895
59.003	51.495
60.003	45.995
61.002	48.644
62.002	48.895
63.002	50.195
64.002	49.595
65.065	42.463
66.003	36.457
67.003	36.296
68.003	36.896
69.003	38.596
70.003	35.696
71.003	37.796
72.003	39.496
73.003	38.696
74.064	36.660
75.003	41.423
76.004	37.796
77.004	39.696
78.003	40.737
79.003	40.096
80.003	37.396
81.057	38.801
82.003	42.385
83.003	39.996
84.003	40.496
85.090	37.473
86.004	42.337
87.004	41.396
88.004	41.496
89.061	39.258
90.004	45.276
91.004	38.796
92.060	41.852
93.004	45.652
94.004	42.396
95.003	42.138
96.004	43.396
97.004	41.696
98.004	44.696
99.004	44.796
100.004	43.596
101.004	40.596
102.004	44.596
103.004	40.496
104.004	46.395
105.004	45.195
106.071	46.337
107.005	43.572
108.005	46.395
109.005	21.698
