Time [s]	Current [nA]
0.000	43.815
0.942	51.269
1.942	45.995
2.942	50.395
3.942	48.395
4.942	47.695
5.943	48.095
7.008	47.131
7.943	49.728
8.943	49.195
9.943	47.295
10.943	46.795
11.943	46.595
13.005	47.641
13.943	47.863
14.943	48.095
15.944	46.895
17.000	44.598
17.943	46.973
18.943	48.695
19.943	48.195
20.943	47.495
21.943	45.995
22.943	46.395
23.943	43.596
24.943	47.195
25.944	46.295
26.944	46.595
27.944	47.195
28.944	44.696
29.944	47.295
31.006	44.911
32.005	46.842
32.944	50.048
33.944	46.395
35.004	46.222
35.944	46.854
37.000	44.124
38.002	46.802
39.001	46.342
39.944	46.125
41.039	47.575
41.944	49.498
42.944	46.595
44.001	43.610
45.001	46.595
45.994	49.189
47.007	48.070
48.002	43.815
48.945	50.048
50.001	44.124
50.945	50.313
51.945	43.896
52.944	48.744
54.000	45.261
54.944	50.101
55.945	46.995
56.945	48.295
57.945	44.296
58.945	48.195
59.945	46.695
61.005	45.090
61.945	50.527
63.010	46.850
63.945	46.947
64.945	47.195
65.946	45.995
66.946	46.295
67.946	43.896
68.946	48.695
69.945	47.042
70.945	47.495
71.945	46.795
72.945	46.795
74.003	45.931
74.945	47.554
75.946	47.795
76.946	46.295
77.946	46.995
78.946	49.295
79.946	43.796
80.946	48.795
81.946	47.095
82.946	46.895
83.946	47.195
84.946	47.995
85.947	44.496
86.947	48.495
87.946	47.443
89.004	44.892
89.946	46.068
90.946	48.195
92.002	46.965
93.003	47.148
93.946	49.942
94.946	46.895
95.947	45.095
96.947	48.995
97.947	47.995
98.947	46.495
99.947	46.495
101.026	43.832
101.947	48.204
102.947	48.995
103.947	47.695
104.946	47.443
105.954	21.746
