Time [s]	Current [nA]
0.000	7.110
1.000	30.997
2.059	31.630
3.000	30.815
4.058	33.361
4.999	36.447
6.000	33.497
7.000	33.797
8.000	31.597
9.000	34.097
10.000	33.597
11.000	34.097
12.000	35.396
13.000	32.597
14.000	37.096
15.001	36.696
16.001	33.297
17.001	35.396
18.001	34.297
19.063	33.236
20.001	35.284
21.000	35.332
22.066	35.925
23.000	34.044
24.000	36.096
25.000	37.696
26.001	33.497
27.001	36.596
28.063	38.320
29.001	34.645
30.001	34.597
31.001	37.796
32.001	36.796
33.001	36.896
34.001	36.700
35.001	37.507
36.001	35.407
37.001	37.808
38.000	34.907
38.999	37.845
39.999	37.307
40.999	39.708
42.093	35.473
42.998	38.749
43.998	37.207
44.998	37.207
45.998	37.407
46.998	39.108
47.997	36.407
48.997	38.908
49.997	37.608
50.997	38.008
52.081	40.137
52.996	37.453
53.996	36.207
55.060	39.576
55.995	38.189
56.995	39.708
57.994	40.708
58.994	36.807
59.994	39.208
60.994	38.808
61.994	38.808
62.993	38.908
64.059	37.812
64.993	38.980
65.993	39.508
66.993	39.108
67.992	39.008
68.992	36.907
69.992	39.708
70.992	39.608
71.992	38.708
72.991	37.908
73.990	39.047
74.990	38.008
75.990	41.708
76.990	36.707
77.989	40.708
78.989	40.108
79.989	41.008
80.995	40.764
81.989	35.923
82.988	40.208
83.988	39.308
84.988	39.108
85.988	40.808
86.988	37.708
87.987	40.008
88.987	39.008
89.987	39.808
90.986	41.350
91.986	40.308
92.985	37.608
93.985	39.608
95.047	41.063
95.985	38.707
96.985	41.108
97.984	38.308
98.984	40.508
99.984	39.908
100.984	39.608
101.984	36.207
102.983	40.608
103.983	40.608
104.983	39.108
105.983	39.308
106.983	35.807
107.982	40.608
108.981	39.948
109.981	35.607
110.981	39.008
111.981	38.808
112.980	38.408
113.980	40.508
114.980	36.207
116.046	39.220
116.980	36.945
118.046	39.183
119.036	36.775
119.979	38.926
121.062	38.604
122.045	39.275
122.978	37.695
123.978	38.608
124.978	39.608
125.977	37.044
126.977	39.608
127.976	38.908
128.976	38.308
129.976	36.407
130.976	39.408
131.976	38.908
133.102	22.542
