Time [s]	Current [nA]
0.000	7.587
1.000	44.096
2.000	44.796
3.000	42.196
4.000	46.395
5.001	45.495
6.001	45.795
7.001	44.896
8.001	45.595
9.001	43.096
10.001	46.995
11.001	45.595
12.000	44.540
13.000	44.396
14.000	42.996
15.083	48.239
16.063	42.037
17.060	45.632
18.001	48.029
19.001	40.696
20.001	45.895
21.057	44.314
22.062	44.672
23.001	43.872
24.066	46.193
25.002	44.381
26.072	42.519
27.066	47.983
28.002	43.799
29.002	44.896
30.001	45.441
31.001	47.095
32.001	43.096
33.001	45.295
34.001	45.495
35.002	45.495
36.002	45.895
37.067	44.596
38.002	46.199
39.064	42.651
40.002	47.863
41.061	42.205
42.068	47.066
43.002	44.642
44.073	42.293
45.065	46.211
46.068	45.658
47.067	45.041
48.064	42.423
49.063	46.742
50.067	45.215
51.002	43.311
52.067	46.380
53.061	42.551
54.062	47.248
55.002	44.038
56.068	47.507
57.003	42.990
58.003	45.395
59.059	45.071
60.003	45.758
61.061	43.190
62.003	47.341
63.003	44.796
64.003	43.096
65.089	46.263
66.065	43.233
67.066	44.851
68.065	45.441
69.065	45.195
70.003	45.838
71.003	46.495
72.003	46.095
73.003	45.495
74.062	42.489
75.003	43.779
76.004	46.495
77.004	42.696
78.069	46.944
79.004	43.311
80.004	44.896
81.004	47.895
82.003	43.839
83.003	46.695
84.003	45.895
85.003	45.195
86.004	44.995
87.066	44.346
88.004	45.731
89.004	46.095
90.004	45.195
91.004	44.896
92.004	46.595
93.004	43.096
94.004	45.795
95.004	45.695
96.005	45.295
97.005	44.995
98.005	46.995
99.005	43.296
100.004	46.742
101.061	42.569
102.004	48.245
103.004	42.496
104.004	45.595
105.004	46.795
106.005	45.495
107.005	45.595
108.005	44.396
109.005	33.097
110.005	18.098
111.005	25.297
112.067	30.035
113.125	22.777
