Time [s]	Current [nA]
0.000	41.800
1.062	46.798
2.000	52.026
3.000	47.800
4.000	44.500
5.000	48.700
6.000	48.900
6.999	45.846
7.999	49.000
8.999	48.800
9.999	49.200
10.999	50.000
12.056	47.493
12.999	46.872
13.999	49.400
15.060	50.236
16.089	48.202
16.999	49.890
17.999	45.900
18.999	49.300
19.999	49.000
21.060	50.047
22.055	45.729
22.999	48.411
23.999	48.400
24.998	49.950
25.998	48.700
26.998	48.900
27.998	51.200
28.998	46.900
29.998	50.000
30.998	48.800
31.998	49.600
33.059	49.199
33.998	48.775
34.998	45.500
35.998	48.300
36.998	48.400
37.998	49.100
38.998	50.800
39.998	30.500
40.998	19.900
42.062	28.853
42.997	33.476
43.997	43.100
45.076	42.261
46.059	50.865
47.058	45.045
48.059	49.251
48.997	52.772
49.997	46.900
50.997	51.100
51.997	50.000
52.997	48.800
53.997	48.900
55.080	46.722
55.997	48.746
56.997	50.300
57.997	49.300
58.997	48.700
59.996	44.444
60.996	50.300
61.996	50.500
62.996	44.400
63.996	48.700
64.996	49.100
65.996	48.200
67.059	47.225
67.996	48.346
68.996	49.300
69.996	49.300
70.996	49.200
71.996	50.600
72.996	46.500
73.996	48.000
75.058	45.480
75.996	51.386
76.995	48.448
77.995	45.400
78.995	50.700
80.053	46.125
80.995	52.123
81.995	47.900
82.995	44.900
83.995	49.600
84.995	48.000
85.995	43.900
86.995	48.000
87.995	48.300
88.995	50.900
89.995	46.400
90.995	48.900
92.051	45.644
93.051	47.500
94.001	51.158
94.994	44.109
95.994	50.300
97.056	45.669
97.994	51.386
98.994	48.100
100.055	47.408
100.994	47.923
101.994	48.800
102.994	48.100
103.994	48.500
104.994	18.400
