Time [s]	Current [nA]
0.000	6.110
0.999	54.849
1.999	49.395
2.999	51.895
3.999	51.895
4.999	51.095
6.000	51.795
7.000	48.095
8.000	53.395
9.000	52.195
10.057	48.813
11.000	54.820
12.000	49.095
13.000	53.195
14.000	52.795
15.000	51.395
16.001	51.495
17.001	52.295
18.000	50.045
19.000	53.495
20.000	52.095
21.000	51.195
22.000	51.495
23.000	48.995
24.000	53.995
25.081	53.328
26.001	50.756
27.001	51.695
28.001	51.195
29.001	48.195
30.001	53.295
31.001	52.095
32.063	48.300
33.001	54.259
34.001	48.595
35.001	52.395
36.001	52.047
37.001	51.295
38.001	51.195
39.059	48.199
40.067	53.268
41.001	51.173
42.001	47.295
43.001	50.695
44.001	50.795
45.001	52.895
46.087	47.645
47.002	53.219
48.002	51.895
49.002	50.295
50.002	50.795
51.002	52.895
52.002	47.795
53.067	52.952
54.001	49.246
55.001	50.995
56.002	51.395
57.002	53.395
58.067	50.511
59.002	49.621
60.068	52.997
61.002	49.353
62.061	50.703
63.002	51.217
64.002	51.295
65.002	51.595
66.003	50.795
67.003	50.695
68.063	49.806
69.003	51.271
70.065	48.300
71.002	53.890
72.064	47.924
73.002	51.274
74.002	52.795
75.002	51.395
76.003	51.995
77.003	50.895
78.003	50.795
79.068	50.324
80.003	51.332
81.003	51.095
82.003	47.195
83.003	51.195
84.003	53.095
85.003	52.695
86.004	47.295
87.004	51.295
88.003	50.846
89.069	52.434
90.003	51.280
91.003	48.195
92.003	51.995
93.003	50.795
94.003	51.295
95.003	52.695
96.098	47.162
97.004	53.858
98.030	37.228
