Time [s]	Current [nA]
0.000	36.900
1.000	48.500
2.059	46.931
3.063	45.518
4.059	50.402
5.057	48.998
6.058	48.551
7.058	48.000
8.060	51.497
9.000	49.468
10.000	49.800
11.000	48.400
12.006	48.111
12.999	46.224
13.999	49.100
14.999	50.800
15.999	48.900
16.999	49.100
17.999	48.900
19.058	47.875
19.999	48.672
20.999	49.400
21.999	48.800
22.999	45.700
23.999	50.400
24.999	50.500
26.060	48.445
26.999	47.071
27.999	48.900
28.998	49.650
29.998	49.800
30.998	46.100
31.998	49.100
33.058	48.585
33.998	46.064
34.998	48.100
35.998	50.900
36.998	45.700
37.998	49.800
38.998	49.500
39.998	49.900
40.998	50.600
41.998	51.300
42.998	44.700
43.998	48.700
44.998	48.000
45.998	48.300
47.055	47.682
47.997	49.045
48.997	49.800
50.058	50.518
50.997	46.965
52.059	51.883
53.051	46.371
53.997	46.512
54.997	49.200
55.997	48.200
56.997	48.800
58.056	48.253
59.058	50.299
59.997	48.349
60.997	50.000
62.058	50.895
62.997	49.414
64.087	46.055
64.996	50.385
65.996	49.200
67.057	50.707
67.996	47.071
68.996	51.000
69.996	51.200
70.996	45.800
71.996	49.600
72.996	48.700
73.996	49.800
74.996	50.700
76.056	49.245
76.996	47.021
77.996	48.200
78.996	48.700
80.049	47.863
80.996	53.432
81.995	45.445
82.995	49.400
84.056	50.424
84.995	47.710
85.995	51.500
86.995	45.600
87.995	49.100
88.995	48.400
89.995	48.000
90.995	50.000
91.995	47.000
92.995	48.900
93.995	48.300
95.056	49.576
95.995	46.752
96.995	48.200
98.065	18.131
98.994	22.067
99.994	30.800
100.994	37.700
102.050	40.814
102.994	49.576
104.052	34.877
