Time [s]	Current [nA]
0.000	7.070
1.000	52.495
2.000	49.795
3.065	55.957
4.000	50.797
5.056	49.189
6.059	52.238
7.001	57.213
8.070	51.445
9.001	50.371
10.000	53.148
11.000	52.095
12.000	51.595
13.000	53.695
14.062	51.501
15.001	50.315
16.001	51.895
17.057	49.332
18.001	56.880
19.001	47.995
20.001	53.995
21.001	52.495
22.056	49.189
23.001	54.598
24.058	50.326
25.002	52.381
26.059	49.380
27.002	54.820
28.001	51.646
29.001	52.895
30.001	47.695
31.057	50.847
32.001	54.656
33.001	50.695
34.001	50.695
35.002	53.195
36.002	48.895
37.002	51.495
38.002	50.995
39.002	50.895
40.002	51.695
41.002	48.795
42.002	52.795
43.058	48.953
44.061	50.643
45.001	54.037
46.002	52.495
47.002	48.095
48.002	51.695
49.002	51.895
50.002	51.195
51.059	48.340
52.002	51.108
53.002	52.495
54.002	46.495
55.002	54.495
56.003	45.895
57.003	51.695
58.003	52.695
59.003	50.895
60.003	47.595
61.003	51.095
62.003	50.595
63.002	52.047
64.002	47.895
65.002	50.995
66.003	49.995
67.003	50.695
68.003	52.195
69.003	46.395
70.003	51.995
71.003	50.595
72.003	50.195
73.003	49.895
74.057	49.521
75.003	50.841
76.004	49.995
77.004	49.995
78.004	49.695
79.004	51.195
80.003	45.441
81.003	52.295
82.003	50.395
83.003	49.495
84.061	47.349
85.003	54.453
86.004	47.295
87.061	47.867
88.004	52.381
89.059	46.630
90.004	53.116
91.004	50.695
92.065	49.665
93.059	45.770
94.004	53.116
95.004	50.195
96.060	49.663
97.005	50.365
98.004	51.346
99.004	14.599
