Time [s]	Current [nA]
0.000	5.269
0.999	48.644
1.999	51.495
2.999	50.895
3.999	52.295
4.999	51.695
6.000	49.795
7.000	51.495
8.000	50.795
9.000	51.295
10.000	52.995
11.000	52.595
12.000	47.795
13.000	50.795
14.000	51.195
15.000	51.395
16.054	51.087
17.001	56.172
18.067	48.963
19.000	50.263
20.000	52.895
21.000	54.895
22.000	55.594
23.000	48.995
24.000	53.895
25.000	53.395
26.001	52.995
27.001	55.594
28.001	50.795
29.001	53.795
30.001	53.295
31.001	53.195
32.001	55.194
33.001	55.794
34.001	48.895
35.001	53.995
36.001	53.048
37.001	53.195
38.001	55.494
39.001	55.494
40.001	49.895
41.001	53.195
42.001	53.395
43.001	55.194
44.001	54.795
45.001	49.795
46.002	53.595
47.002	53.095
48.002	53.195
49.002	55.094
50.002	55.094
51.002	49.395
52.002	53.195
53.001	52.948
54.001	53.695
55.001	53.795
56.063	52.115
57.002	51.859
58.002	52.595
59.002	52.695
60.002	54.895
61.002	54.994
62.002	49.695
63.002	52.595
64.002	52.695
65.099	53.006
66.003	54.419
67.009	53.971
68.003	48.587
69.003	52.095
70.003	52.695
71.002	54.349
72.002	54.795
73.002	48.295
74.002	52.295
75.002	52.195
76.003	52.595
77.003	54.595
78.058	51.654
79.060	53.089
80.003	50.260
81.003	51.895
82.003	53.095
83.003	54.095
84.009	52.182
85.003	47.782
86.004	51.695
87.004	51.295
88.003	53.748
89.003	49.295
90.003	52.095
91.064	52.492
92.003	49.835
93.003	53.195
94.003	52.495
95.003	47.995
96.004	19.898
