Time [s]	Current [nA]
0.000	45.600
1.000	50.300
2.000	54.900
3.000	53.400
4.056	49.905
5.000	55.508
6.000	54.600
6.999	48.649
7.999	53.500
8.999	53.600
9.999	52.500
10.999	52.600
11.999	49.700
12.999	54.900
13.999	52.800
14.999	52.200
15.999	52.100
16.999	54.400
17.999	48.200
18.999	56.000
19.999	53.500
20.999	53.300
21.999	52.800
23.065	52.064
23.998	53.805
24.998	53.400
26.057	49.953
26.998	56.217
27.998	48.400
28.998	54.300
29.998	55.300
30.998	49.400
31.998	52.600
32.998	53.000
33.998	54.900
34.998	54.500
36.060	50.094
36.998	51.066
37.998	52.600
39.083	53.088
39.998	55.519
40.998	49.200
42.062	54.323
43.062	52.800
43.997	49.840
44.997	54.100
46.062	51.737
46.997	50.802
47.997	52.698
48.997	52.695
49.997	52.895
50.997	54.295
51.997	50.395
52.998	51.995
53.998	51.495
54.998	51.695
55.998	53.995
56.998	48.395
57.998	53.895
59.059	50.231
60.059	51.795
60.997	55.325
62.058	51.361
62.998	52.817
63.998	52.895
64.998	52.695
65.998	52.595
66.998	48.895
67.998	53.795
68.998	50.595
70.058	54.523
70.998	50.740
71.998	52.995
72.999	54.295
73.999	54.195
74.999	48.595
75.998	52.347
76.998	52.295
78.079	53.926
78.998	53.313
79.998	54.095
80.998	48.995
81.998	52.095
82.999	52.695
84.054	51.748
84.999	57.031
85.999	47.495
86.999	52.795
87.999	52.395
88.999	51.995
89.999	53.995
90.999	49.395
91.999	52.095
93.000	51.995
93.999	51.847
95.127	25.529
