Time [s]	Current [nA]
0.000	7.860
1.000	54.200
2.060	53.019
3.057	48.847
4.000	54.295
5.000	50.200
6.000	50.300
7.000	52.100
8.000	46.700
9.000	52.400
10.000	50.600
11.000	50.500
12.000	50.700
13.000	48.600
13.999	53.053
14.999	51.900
15.999	51.100
16.999	50.900
17.999	52.100
18.999	46.900
20.055	50.379
20.999	54.555
21.999	51.200
22.999	51.400
23.999	52.800
25.061	50.942
26.056	46.935
26.999	53.446
27.999	50.800
28.999	51.200
29.999	48.500
30.998	52.653
31.998	50.900
32.998	50.700
33.998	51.100
34.998	53.000
35.998	48.400
36.998	51.800
37.998	50.300
38.998	50.200
39.998	50.200
41.051	49.763
41.998	49.842
42.998	51.700
43.998	50.600
44.998	51.200
46.057	49.953
47.059	54.391
47.998	49.627
48.997	52.452
49.997	50.900
50.997	51.900
52.050	50.902
52.997	51.214
53.997	52.600
55.055	48.015
55.997	54.459
57.052	50.332
57.997	50.265
59.052	50.806
59.997	54.497
61.051	48.577
61.997	54.334
63.054	50.710
63.997	51.007
65.055	49.527
65.996	53.985
66.996	51.700
68.065	49.860
68.996	51.450
69.996	53.800
70.996	51.900
72.055	47.970
73.051	51.606
73.996	51.640
75.058	55.179
75.996	50.320
76.996	50.800
77.996	51.300
79.084	47.151
80.055	55.304
80.996	51.222
81.996	51.500
83.054	48.299
83.995	54.942
84.995	49.200
85.995	53.200
86.995	52.200
87.995	52.300
88.995	51.200
89.995	52.200
91.051	51.136
91.995	52.331
92.995	51.500
93.995	51.300
94.995	51.700
95.995	53.300
96.995	48.300
98.089	27.697
