Time [s]	Current [nA]
0.000	43.396
1.000	52.395
2.000	52.495
3.000	54.395
4.000	49.895
5.085	54.699
6.059	49.584
7.001	55.833
8.001	52.395
9.001	49.195
10.001	55.094
11.001	53.095
12.057	49.427
13.001	55.397
14.059	51.318
15.087	52.770
16.002	52.454
17.059	50.515
18.001	55.727
19.001	52.595
20.001	53.795
21.001	49.295
22.001	53.295
23.001	51.995
24.001	52.195
25.006	53.580
26.002	52.906
27.002	50.095
28.002	53.595
29.002	51.895
30.002	51.795
31.002	54.095
32.063	51.550
33.002	49.835
34.001	51.246
35.001	51.695
36.103	53.764
37.063	49.578
38.055	50.701
39.002	57.228
40.059	49.948
41.002	55.986
42.002	55.294
43.002	50.595
44.002	54.295
45.002	53.795
46.053	50.281
47.003	55.889
48.003	55.194
49.065	53.008
50.003	51.594
51.003	53.195
52.002	53.148
53.002	54.895
54.010	49.896
55.002	54.128
56.003	53.995
57.003	52.695
58.003	52.695
59.003	55.094
60.003	50.495
61.061	50.657
62.003	55.833
63.073	54.294
64.003	53.328
65.099	49.767
66.004	53.696
67.062	50.468
68.004	55.408
69.003	52.447
70.003	54.295
71.003	49.995
72.003	53.295
73.060	49.569
74.003	55.244
75.007	53.879
76.004	53.208
77.004	49.895
78.004	48.195
79.004	35.796
80.004	44.496
81.004	53.995
82.004	51.595
83.004	55.694
84.004	52.295
85.061	48.669
86.005	54.550
87.004	49.244
88.004	52.795
89.061	49.286
90.004	53.971
91.004	51.595
92.004	53.395
93.067	51.735
94.004	50.048
95.071	45.586
