Time [s]	Current [nA]
0.000	13.049
0.939	46.432
1.939	48.300
2.939	48.000
3.939	49.700
4.939	49.600
5.939	44.000
6.997	48.771
7.939	46.178
8.939	49.300
9.939	49.100
10.939	46.500
11.939	48.700
12.939	48.800
13.938	48.749
15.000	52.637
15.938	48.827
16.938	44.800
17.938	53.000
18.938	44.600
19.938	48.500
20.938	49.400
21.938	50.900
22.938	44.700
23.938	49.000
24.938	49.200
25.938	51.200
26.938	51.100
27.938	45.000
28.999	49.576
29.938	51.331
30.938	44.000
31.937	49.950
32.937	49.600
33.996	46.176
34.937	45.802
35.937	47.600
36.937	49.800
37.937	50.700
38.937	44.600
39.937	49.100
40.937	48.100
41.937	53.600
43.001	49.342
43.937	49.359
44.937	36.600
45.937	37.200
46.937	36.500
47.937	37.500
48.936	38.839
49.936	35.700
50.936	37.900
51.936	36.800
52.993	37.370
53.936	36.267
54.936	38.800
55.936	35.500
56.936	37.700
57.936	42.500
58.936	36.800
59.936	39.700
60.936	37.700
61.995	41.076
62.941	41.755
63.936	37.487
64.992	39.205
65.936	44.068
66.996	38.679
67.935	38.871
68.935	41.000
69.935	41.500
71.014	42.632
71.935	42.888
72.935	40.100
73.935	42.300
74.935	42.500
75.935	42.300
76.935	43.900
77.935	41.100
78.935	44.900
79.935	44.000
80.935	44.200
81.935	46.100
82.935	46.500
83.934	41.141
84.934	44.400
85.934	44.500
86.934	45.000
87.934	45.600
88.934	46.500
89.934	52.200
90.934	50.700
91.934	50.200
92.934	52.300
93.934	54.000
94.934	48.300
95.934	52.100
96.934	56.300
97.934	49.900
98.934	53.800
99.934	51.600
100.934	47.600
101.933	51.051
102.933	51.500
103.933	53.500
104.933	53.300
105.994	49.010
106.933	49.627
107.934	55.844
108.933	44.745
