Time [s]	Current [nA]
0.000	6.495
1.000	50.495
2.000	46.095
3.000	48.995
4.000	48.995
5.001	48.695
6.001	48.395
7.067	47.650
8.064	45.131
9.002	51.381
10.001	48.043
11.001	44.096
12.001	50.395
13.001	50.495
14.000	44.740
15.001	49.695
16.001	48.595
17.001	48.695
18.001	49.995
19.001	45.895
20.001	48.695
21.001	52.495
22.001	44.196
23.063	51.596
24.001	46.904
25.002	48.795
26.003	48.646
27.002	44.240
28.002	53.595
29.002	47.095
30.002	51.995
31.001	45.841
32.001	53.595
33.001	49.595
34.063	49.336
35.002	47.543
36.002	51.795
37.002	45.695
38.002	49.395
39.002	40.196
40.002	33.997
41.002	43.796
42.002	44.596
43.002	50.195
44.002	54.795
45.003	45.395
46.003	50.395
47.003	51.395
48.003	44.796
49.002	48.644
50.002	48.795
51.002	50.495
52.002	50.995
53.002	45.395
54.061	50.609
55.003	51.855
56.003	45.195
57.003	52.195
58.003	46.895
59.003	49.795
60.057	46.485
61.003	51.898
62.058	48.621
63.066	51.384
64.003	47.274
65.066	46.888
66.003	52.183
67.003	48.695
68.003	46.295
69.003	50.195
70.003	48.895
71.003	48.995
72.003	44.796
73.003	50.495
74.003	49.995
75.003	45.195
76.004	48.995
77.004	48.695
78.004	48.795
79.004	50.695
80.004	50.295
81.004	45.395
82.004	48.695
83.004	48.695
84.003	50.545
85.003	48.795
86.004	46.195
87.004	48.895
88.004	48.595
89.004	48.395
90.004	50.595
91.004	50.195
92.004	44.796
93.004	51.995
94.059	45.967
95.004	47.614
96.005	49.695
97.005	49.695
98.005	44.296
99.005	47.995
100.005	52.495
101.004	45.541
102.004	46.695
103.004	48.495
104.004	14.199
