Time [s]	Current [nA]
0.000	7.604
1.000	48.695
2.062	46.511
3.000	50.421
4.000	47.395
5.001	47.595
6.001	45.495
7.001	48.595
8.001	43.696
9.062	48.817
10.060	47.590
11.001	47.179
12.001	47.395
13.062	46.555
14.001	46.321
15.068	48.494
16.001	45.655
17.001	49.795
18.062	48.063
19.055	43.702
20.001	50.735
21.001	47.595
22.001	48.095
23.001	48.895
24.001	44.896
25.057	45.683
26.002	50.471
27.002	47.195
28.002	44.596
29.002	49.295
30.002	48.295
31.061	44.755
32.002	50.579
33.072	44.949
34.001	49.295
35.001	49.995
36.065	45.433
37.002	51.115
38.002	48.195
39.002	45.295
40.002	50.295
41.002	43.996
42.002	49.095
43.002	47.995
44.002	48.095
45.002	50.095
46.003	45.795
47.003	48.995
48.065	50.466
49.057	43.947
50.003	52.743
51.002	44.140
52.002	49.795
53.002	49.195
54.002	48.295
55.002	48.095
56.003	46.095
57.065	47.453
58.061	48.991
59.003	51.375
60.003	48.095
61.003	45.995
62.003	48.795
63.003	50.095
64.003	44.696
65.003	47.995
66.004	48.495
67.004	50.195
68.004	49.495
69.065	46.555
70.068	48.350
71.003	47.054
72.003	49.295
73.003	49.695
74.003	45.795
75.003	48.495
76.004	47.795
77.066	49.807
78.004	47.650
79.004	46.095
80.004	48.595
81.004	47.595
82.004	47.795
83.004	48.295
84.004	45.695
85.004	49.695
86.004	48.243
87.004	48.095
88.004	48.695
89.004	45.395
90.004	49.595
91.078	44.595
92.004	47.943
93.004	47.295
94.004	46.995
95.004	49.295
96.005	45.395
97.005	48.495
98.068	49.760
99.068	48.095
100.005	48.661
101.005	44.396
102.005	49.295
103.004	49.144
104.004	48.295
105.075	21.306
