Time [s]	Current [nA]
0.000	22.932
1.000	48.295
2.000	49.895
3.000	50.195
3.999	44.340
4.999	47.795
6.000	48.295
7.000	48.095
8.000	49.895
9.000	49.895
10.000	44.396
11.000	48.295
12.000	47.595
13.000	49.795
14.000	50.695
15.072	45.560
16.001	47.358
17.001	47.695
18.001	51.595
19.063	47.641
20.001	47.437
21.000	44.340
22.000	47.595
23.000	51.595
24.000	45.395
25.000	49.595
26.001	47.595
27.001	44.296
28.053	49.045
29.009	49.890
30.001	45.358
31.001	49.795
32.001	43.996
33.001	47.495
34.001	51.895
35.001	45.495
36.002	48.695
37.002	44.796
38.002	47.995
39.001	47.543
40.001	51.495
41.001	45.295
42.001	49.795
43.001	43.996
44.001	47.395
45.061	48.532
46.002	47.498
47.073	50.135
48.004	47.793
49.002	43.683
50.002	46.995
51.002	47.195
52.002	48.895
53.002	49.895
54.002	44.196
55.059	49.048
56.002	45.489
57.002	47.095
58.002	50.295
59.002	49.095
60.002	44.096
61.002	51.995
62.002	43.896
63.002	49.395
64.002	49.695
65.002	43.396
66.003	47.795
67.003	46.795
68.003	46.895
69.003	48.895
70.003	49.695
71.003	44.496
72.003	47.695
73.003	51.695
74.002	45.141
75.061	46.687
76.004	50.366
77.003	44.140
78.003	47.295
79.003	51.595
80.003	45.095
81.003	49.895
82.003	43.396
83.003	47.095
84.003	47.295
85.003	48.995
86.004	48.995
87.004	48.895
88.004	44.096
89.004	47.795
90.063	48.720
91.003	48.080
92.003	49.595
93.003	44.096
94.003	47.895
95.003	47.695
96.004	48.595
97.004	48.995
98.004	50.095
99.004	44.096
100.004	52.095
101.059	45.872
102.004	48.038
103.063	47.587
104.013	51.153
105.060	13.670
