Time [s]	Current [nA]
0.000	29.660
1.000	55.494
2.000	60.394
3.000	53.395
4.000	57.494
5.001	56.894
6.001	58.994
7.001	56.394
8.001	54.095
9.001	56.094
10.063	56.586
11.001	58.843
12.001	53.495
13.001	57.794
14.001	51.095
15.001	55.250
16.001	61.294
17.088	52.433
18.001	56.730
19.001	58.394
20.001	51.195
21.001	53.595
22.001	59.194
23.001	52.195
24.059	54.153
25.012	57.557
26.002	50.197
27.002	53.295
28.002	52.995
29.002	56.194
30.002	55.994
31.061	52.308
32.002	51.004
33.001	53.448
34.001	55.694
35.002	55.094
36.002	53.195
37.068	50.652
38.063	52.658
39.002	50.474
40.002	55.095
41.002	55.594
42.002	48.295
43.059	53.921
44.058	52.647
45.065	54.070
46.068	49.048
47.003	51.760
48.003	51.995
49.003	50.395
50.058	52.128
51.002	51.054
52.061	50.609
53.060	53.148
54.002	49.889
55.060	53.826
56.003	51.639
57.086	47.364
58.065	53.723
59.003	51.168
60.003	52.095
61.003	52.495
62.062	51.836
63.003	53.661
64.060	50.326
65.060	51.947
66.004	55.079
67.004	53.395
68.003	54.149
69.003	49.695
70.003	53.095
71.003	51.895
72.003	51.295
73.003	48.995
74.003	54.195
75.003	52.995
76.004	52.095
77.004	51.795
78.004	52.995
79.004	50.295
80.004	53.595
81.060	49.711
82.004	54.444
83.060	48.480
84.004	57.410
85.003	49.945
86.004	51.795
87.004	52.795
88.004	51.795
89.004	51.495
90.004	48.595
91.004	52.295
92.004	46.495
93.004	50.795
94.193	27.331
