Time [s]	Current [nA]
0.000	27.845
1.000	53.395
2.000	49.595
3.000	53.895
4.000	48.095
5.000	56.294
6.001	52.195
7.001	50.095
8.001	54.995
9.001	53.395
10.001	49.695
11.001	52.795
12.001	51.795
13.001	54.595
14.057	51.699
15.001	51.902
16.002	53.295
17.001	57.352
18.001	50.295
19.001	53.995
20.001	51.095
21.001	54.095
22.001	52.595
23.001	51.395
24.001	52.095
25.001	52.995
26.002	47.295
27.002	51.795
28.059	53.732
29.002	49.624
30.064	53.761
31.060	47.686
32.002	50.207
33.002	50.495
34.001	50.746
35.001	53.195
36.002	49.595
37.002	50.395
38.002	49.595
39.002	55.894
40.002	46.095
41.058	49.711
42.002	55.503
43.002	46.095
44.002	49.495
45.003	54.340
46.003	47.343
47.003	52.495
48.074	47.054
49.003	49.403
50.003	49.295
51.003	54.495
52.002	47.543
53.002	51.895
54.002	47.195
55.002	49.395
56.003	54.495
57.003	48.595
58.003	53.495
59.003	47.295
60.003	53.595
61.003	52.095
62.003	51.495
63.058	50.611
64.003	50.683
65.003	51.895
66.004	50.595
67.004	50.895
68.004	53.295
69.094	48.436
70.003	51.370
71.003	51.695
72.058	47.768
73.003	54.386
74.062	50.703
75.003	52.598
76.004	55.894
77.004	59.094
78.004	59.294
79.071	57.539
80.004	59.051
81.004	62.294
82.004	60.194
83.004	58.994
84.004	59.894
85.004	61.494
86.005	57.094
87.004	60.855
88.004	59.394
89.058	56.256
90.004	62.573
91.062	57.650
92.004	59.017
93.004	59.694
94.004	58.694
95.057	4.847
