Time [s]	Current [nA]
0.000	0.493
1.000	50.495
2.000	55.394
2.999	53.048
3.999	52.095
4.999	52.595
6.000	54.295
7.000	49.795
8.000	54.295
9.000	52.495
10.000	52.995
11.000	52.095
12.000	54.595
13.062	52.161
14.000	51.701
15.000	52.495
16.001	52.995
17.002	53.042
18.001	48.344
19.001	55.294
20.000	53.048
21.059	49.004
22.000	55.361
23.053	51.182
24.000	52.476
25.000	51.895
26.001	51.495
27.058	49.569
28.001	56.304
29.001	47.795
30.001	53.495
31.001	52.195
32.001	51.195
33.001	49.795
34.001	53.395
35.001	48.295
36.059	49.191
37.002	53.971
38.001	50.545
39.001	51.495
40.057	50.468
41.001	51.054
42.001	51.395
43.001	51.095
44.058	48.718
45.001	56.410
46.002	49.695
47.002	52.595
48.002	53.695
49.060	53.303
50.002	62.202
51.002	56.794
52.002	62.194
53.002	59.794
54.002	58.494
55.001	58.853
56.002	61.694
57.002	56.094
58.002	59.994
59.002	60.994
60.002	59.394
61.002	58.994
62.005	61.011
63.002	56.664
64.002	59.994
65.002	58.494
66.003	58.694
67.003	60.994
68.003	54.495
69.003	60.994
70.003	59.794
71.061	55.193
72.003	62.414
73.002	55.150
74.002	60.394
75.002	59.094
76.059	54.919
77.003	61.223
78.003	59.894
79.003	53.795
80.003	60.894
81.059	54.635
82.003	60.481
83.003	56.894
84.003	59.494
85.003	54.595
86.004	58.594
87.004	57.094
88.004	56.794
89.004	57.394
90.003	54.949
91.114	49.050
