Time [s]	Current [nA]
0.000	15.400
1.000	52.395
2.099	48.312
3.000	59.484
4.070	52.238
5.058	49.235
6.001	55.774
7.001	52.595
8.060	50.703
9.062	55.683
10.053	47.624
11.055	51.891
12.000	55.656
13.000	51.695
14.051	51.184
15.063	54.297
16.001	51.701
17.001	52.295
18.066	54.079
19.001	53.043
20.001	49.795
21.077	55.106
22.063	47.460
23.064	51.843
24.060	53.408
25.065	56.369
26.061	49.694
27.066	53.129
28.002	50.529
29.001	52.247
30.001	54.195
31.070	51.258
32.001	53.056
33.001	53.695
34.001	52.495
35.001	52.095
36.002	54.295
37.002	54.995
38.002	48.195
39.002	52.395
40.002	52.195
41.002	53.895
42.002	53.095
43.002	46.795
44.061	33.047
45.061	42.138
46.002	51.323
47.002	49.495
48.002	55.694
49.002	49.695
50.002	51.895
51.061	52.403
52.002	49.517
53.073	47.988
54.002	51.879
55.002	50.995
56.003	50.295
57.003	49.795
58.065	53.196
59.003	50.315
60.003	45.695
61.059	52.078
62.058	49.645
63.003	47.826
64.002	52.147
65.002	51.095
66.003	45.395
67.003	49.195
68.062	51.364
69.003	50.261
70.003	52.695
71.003	46.295
72.003	50.895
73.003	49.895
74.003	49.495
75.003	51.895
76.004	47.695
77.004	51.195
78.063	52.214
79.004	54.298
80.066	49.524
81.003	49.622
82.003	46.095
83.003	52.595
84.003	50.795
85.066	53.008
86.004	51.274
87.004	47.995
88.004	52.095
89.004	51.895
90.061	48.529
91.004	55.456
92.004	46.995
93.004	52.595
94.004	52.295
95.059	48.572
96.005	52.955
97.005	51.595
98.140	30.482
