Time [s]	Current [nA]
0.000	23.533
1.000	49.995
2.061	45.236
3.000	45.682
4.000	51.695
5.000	45.395
6.060	46.832
7.005	50.894
8.001	44.373
9.001	47.195
10.001	47.195
11.001	48.795
12.001	49.595
13.000	43.539
14.000	45.195
15.000	46.295
16.001	47.595
17.001	47.795
18.001	43.896
19.001	47.095
20.001	47.295
21.001	47.795
22.001	49.195
23.001	45.095
24.001	47.695
25.060	48.766
26.060	47.295
27.068	49.697
28.002	46.034
29.061	46.832
30.002	46.860
31.001	47.743
32.001	47.395
33.063	49.524
34.001	44.025
35.001	29.497
36.002	36.596
37.061	45.227
38.002	45.160
39.002	50.595
40.002	46.295
41.064	48.959
42.002	44.345
43.002	45.695
44.002	48.095
45.002	47.795
46.078	43.344
47.003	45.509
48.002	45.541
49.059	48.623
50.002	47.397
51.002	44.396
52.002	47.895
53.061	48.626
54.002	44.523
55.002	49.095
56.003	48.895
57.003	44.296
58.003	48.895
59.003	47.795
60.003	47.695
61.003	49.695
62.003	48.995
63.003	43.896
64.003	46.995
65.063	48.909
66.003	47.868
67.003	49.495
68.003	45.295
69.003	48.295
70.003	47.795
71.003	47.795
72.003	48.895
73.052	46.992
74.003	45.947
75.003	47.695
76.004	48.995
77.004	49.495
78.004	49.295
79.004	45.295
80.004	47.495
81.004	47.695
82.004	53.695
83.003	58.353
84.003	57.994
85.003	52.295
86.004	55.594
87.062	58.312
88.004	53.286
89.004	59.094
90.004	52.895
91.004	56.094
92.004	55.294
93.004	55.394
94.053	55.095
95.064	56.628
96.087	55.224
97.065	56.334
98.005	52.335
99.005	54.795
100.005	57.294
101.004	57.051
102.004	48.795
103.004	15.598
