Time [s]	Current [nA]
0.000	16.920
0.999	57.252
1.999	56.994
3.061	54.891
4.058	58.570
4.999	54.086
6.000	55.694
7.000	54.995
8.000	57.094
9.000	57.894
10.000	50.995
11.000	54.595
12.000	55.294
13.074	55.860
14.000	55.826
15.061	53.674
16.001	53.186
17.001	54.295
18.000	53.848
19.000	54.895
20.058	53.775
21.000	52.012
22.000	54.395
23.062	56.209
24.000	51.807
25.061	52.731
26.001	53.824
27.001	54.495
28.001	52.295
29.001	52.795
30.061	52.165
31.001	52.122
32.001	54.994
33.001	52.395
34.001	51.895
35.065	48.537
36.001	51.811
37.001	53.095
38.001	52.795
39.001	51.395
40.001	51.095
41.001	47.695
42.001	52.295
43.001	54.695
44.001	50.995
45.001	46.995
46.002	50.795
47.002	52.695
48.002	48.195
49.063	52.869
50.002	49.090
51.002	50.195
52.002	50.195
53.001	54.449
54.001	49.195
55.068	54.028
56.002	49.888
57.002	51.095
58.060	50.373
59.002	51.693
60.002	52.095
61.002	51.995
62.002	51.095
63.002	50.495
64.002	53.095
65.060	50.232
66.003	48.670
67.065	49.713
68.003	47.117
69.058	47.768
70.003	48.672
71.002	50.846
72.002	51.295
73.002	49.695
74.002	49.395
75.057	48.762
76.003	53.272
77.003	44.596
78.065	49.807
79.003	46.797
80.058	48.526
81.003	53.645
82.003	44.896
83.069	49.995
84.003	45.927
85.069	49.573
86.066	46.134
87.061	50.447
88.003	48.827
89.003	48.195
90.003	47.195
91.064	45.613
92.003	52.284
93.003	45.895
94.003	47.595
95.003	47.695
96.004	47.595
97.004	48.395
98.004	0.300
