Time [s]	Current [nA]
0.000	1.659
1.000	51.395
2.000	47.395
3.000	49.095
4.061	49.854
5.001	47.280
6.001	51.395
7.001	52.195
8.066	47.883
9.001	47.482
10.000	48.844
11.098	50.359
12.057	48.796
13.000	50.472
14.000	50.995
15.001	50.395
16.001	49.995
17.056	49.379
18.001	52.799
19.001	45.395
20.001	47.795
21.001	49.795
22.001	49.595
23.001	52.495
24.001	47.695
25.002	50.395
26.002	49.795
27.001	49.545
28.056	49.000
29.001	49.201
30.001	49.895
31.001	48.695
32.001	48.895
33.001	48.595
34.001	51.195
35.002	46.495
36.002	49.095
37.002	48.695
38.002	48.895
39.057	47.863
40.002	52.905
41.002	44.596
42.062	49.429
43.002	45.740
44.002	48.595
45.001	51.646
46.002	50.495
47.002	44.796
48.062	49.995
49.002	46.804
50.002	49.495
51.002	49.195
52.062	48.014
53.002	46.697
54.002	47.895
55.003	48.995
56.061	47.443
57.056	50.347
58.003	47.830
59.003	48.395
60.003	49.295
61.003	49.595
62.002	52.247
63.002	46.095
64.061	50.514
65.002	47.073
66.003	48.895
67.003	51.895
68.061	49.333
69.003	48.934
70.003	50.595
71.003	49.195
72.003	49.695
73.061	49.144
74.003	54.347
75.003	46.395
76.004	49.695
77.004	49.595
78.004	51.895
79.004	51.495
80.087	46.533
81.069	52.235
82.003	47.747
83.068	52.014
84.003	50.262
85.069	48.540
86.004	47.910
87.004	49.795
88.004	47.095
89.004	30.697
90.004	38.296
91.004	47.695
92.066	46.794
93.004	53.406
94.004	50.595
95.065	48.391
96.005	49.250
97.004	49.945
98.004	48.995
99.004	48.695
100.004	48.495
101.004	58.594
102.119	45.646
