Time [s]	Current [nA]
0.000	20.947
1.000	58.894
2.109	51.663
3.055	54.963
3.999	59.210
4.999	55.994
6.059	52.214
7.000	55.999
8.059	54.291
9.055	56.621
10.061	54.766
11.059	54.504
12.085	55.940
13.000	53.656
14.000	56.194
15.000	50.395
16.001	53.495
17.001	53.895
18.001	55.694
19.061	51.410
20.000	52.604
21.000	53.095
22.000	57.994
23.000	47.895
24.000	54.095
25.000	54.595
26.001	47.995
27.001	57.094
28.056	50.801
29.001	52.693
30.001	55.194
31.001	47.295
32.001	52.895
33.001	52.895
34.001	51.795
35.001	54.895
36.002	48.995
37.060	51.413
38.059	53.748
39.059	53.095
40.061	55.384
41.064	49.447
42.069	52.930
43.062	52.663
44.063	51.044
45.001	54.259
46.002	49.395
47.064	50.277
48.060	52.003
49.058	51.999
50.062	51.688
51.063	54.540
52.103	50.764
53.060	48.271
54.068	52.177
55.067	51.899
56.002	48.658
57.002	52.695
58.059	49.664
59.062	51.341
60.002	48.825
61.002	54.795
62.002	47.495
63.002	53.895
64.002	49.295
65.069	54.028
66.003	49.353
67.068	54.173
68.003	52.508
69.068	50.981
70.064	52.204
71.003	48.877
72.058	47.483
73.002	54.867
74.002	48.995
75.002	53.295
76.003	52.195
77.003	50.495
78.003	50.495
79.003	53.295
80.003	47.995
81.003	51.695
82.003	51.395
83.003	49.995
84.003	49.795
85.063	49.287
86.058	47.734
87.004	53.694
88.004	49.795
89.060	46.870
90.003	55.244
91.003	48.395
92.003	50.895
93.003	49.895
94.003	49.795
95.003	51.695
96.135	26.699
