Time [s]	Current [nA]
0.000	31.797
1.000	43.496
2.000	45.595
3.061	47.121
4.000	44.085
5.000	45.795
6.063	44.722
7.069	46.814
8.001	44.738
9.001	44.995
10.001	44.396
11.001	46.395
12.001	46.795
13.061	43.298
14.000	44.298
15.064	45.997
16.082	44.200
17.059	43.087
18.063	45.414
19.001	44.878
20.001	45.295
21.001	44.896
22.001	46.595
23.001	46.595
24.001	41.896
25.001	46.495
26.064	46.982
27.002	44.025
28.002	46.695
29.005	47.054
30.002	43.326
31.063	47.121
32.060	44.930
33.001	45.160
34.001	48.095
35.001	43.196
36.002	45.795
37.002	45.395
38.063	46.838
39.060	43.225
40.002	45.855
41.002	46.495
42.002	45.495
43.002	50.795
44.002	53.495
45.002	52.295
46.064	51.173
47.003	50.048
48.003	51.395
49.002	51.646
50.055	50.422
51.002	51.843
52.002	52.395
53.002	50.995
54.002	50.795
55.097	52.554
56.003	52.202
57.003	47.695
58.003	50.595
59.003	49.695
60.003	50.195
61.003	52.195
62.003	51.995
63.003	46.195
64.066	51.359
65.003	48.234
66.077	50.973
67.003	50.859
68.062	49.098
69.003	48.348
70.064	50.702
71.003	47.812
72.003	50.295
73.067	47.928
74.085	48.620
75.003	48.797
76.004	48.995
77.004	49.095
78.004	50.495
79.061	47.961
80.004	47.927
81.065	50.513
82.004	46.321
83.004	43.296
84.003	27.925
85.003	32.397
86.004	41.596
87.004	44.995
88.065	48.723
89.004	47.386
90.004	44.995
91.004	47.995
92.065	48.534
93.004	45.043
94.004	47.995
95.089	43.446
96.005	48.030
97.005	46.595
98.005	46.195
99.005	46.495
100.005	47.695
101.005	47.995
102.004	43.539
103.066	46.794
104.004	44.345
105.004	46.195
106.054	29.358
