Time [s]	Current [nA]
0.000	31.297
1.000	48.495
2.000	48.795
3.000	50.095
4.000	44.596
5.001	47.895
6.063	45.476
7.001	50.315
8.001	47.795
9.001	44.696
10.001	49.595
11.001	47.795
12.001	47.695
13.000	48.444
14.000	45.795
15.000	48.995
16.001	49.295
17.063	45.476
18.001	51.061
19.001	43.496
20.001	49.095
21.059	46.782
22.001	47.129
23.001	48.595
24.001	47.595
25.002	48.795
26.002	50.295
27.002	45.895
28.002	48.995
29.002	47.595
30.062	48.957
31.001	47.706
32.001	44.096
33.001	47.695
34.001	47.595
35.067	48.728
36.002	45.129
37.002	49.495
38.002	44.796
39.002	48.095
40.002	48.395
41.002	47.995
42.058	46.113
43.062	48.899
44.077	47.286
45.002	46.482
46.064	48.817
47.063	47.443
48.002	47.812
49.002	44.696
50.002	48.195
51.002	46.695
52.002	46.895
53.002	48.395
54.002	48.695
55.002	44.496
56.003	49.095
57.003	48.395
58.003	48.095
59.003	45.395
60.058	46.725
61.003	50.048
62.003	47.295
63.061	45.931
64.065	50.593
65.002	47.167
66.003	50.495
67.003	48.695
68.003	47.795
69.003	48.095
70.003	45.195
71.003	50.195
72.003	48.095
73.065	45.382
74.065	48.395
75.003	52.234
76.004	45.695
77.059	47.104
78.004	51.318
79.062	45.837
80.004	52.118
81.004	46.295
82.059	47.673
83.064	48.751
84.003	51.220
85.063	45.227
86.004	50.898
87.062	47.254
88.004	47.766
89.066	46.229
90.062	48.088
91.062	48.095
92.062	49.895
93.004	47.554
94.004	47.395
95.004	48.295
96.005	46.595
97.005	46.895
98.005	45.495
99.063	46.876
100.004	51.004
101.004	47.295
102.062	44.419
103.004	48.084
104.004	47.495
105.004	6.099
