Time [s]	Current [nA]
0.000	16.551
0.979	45.552
1.917	51.914
2.917	48.395
3.917	46.095
4.973	47.628
5.918	52.855
6.917	48.944
7.917	48.495
8.917	45.395
9.917	48.795
10.917	49.195
11.917	48.895
12.976	45.416
13.917	51.323
14.917	46.395
15.918	50.095
16.918	44.396
17.918	48.195
18.918	47.795
19.918	50.595
21.012	44.420
21.918	49.443
22.918	47.295
23.918	46.895
24.917	46.442
25.980	46.041
26.918	48.503
27.918	47.795
28.918	47.395
29.918	46.995
30.918	46.895
31.988	43.734
32.973	45.579
33.918	51.000
34.918	47.495
35.919	47.095
36.984	46.380
37.919	47.268
38.919	47.495
39.919	47.095
40.919	47.495
41.918	47.343
42.918	38.496
43.918	29.597
44.979	35.435
45.919	40.997
46.919	45.295
47.919	49.095
48.919	44.596
49.919	46.695
50.919	45.995
51.919	45.495
52.984	47.601
53.919	46.412
54.923	49.099
55.985	45.236
56.920	45.343
57.920	45.695
58.920	47.195
59.919	41.637
60.919	47.895
61.919	46.895
62.919	46.495
63.919	45.795
64.978	44.660
65.920	45.904
66.920	45.695
67.920	45.295
68.974	42.500
69.974	46.695
71.024	42.948
71.920	48.321
72.920	46.295
73.920	44.596
74.920	44.296
75.921	46.195
76.920	42.638
77.920	45.595
78.920	44.796
79.920	44.496
80.920	44.796
81.920	41.496
82.920	45.695
83.920	43.796
84.920	43.096
85.921	43.096
86.921	39.896
87.921	43.096
88.922	43.352
89.982	42.543
90.921	42.488
91.921	44.995
92.921	45.695
93.921	42.396
94.920	44.440
95.921	43.896
96.979	42.340
97.921	47.554
98.921	41.796
99.921	44.296
100.921	44.995
101.921	43.796
102.921	44.296
103.982	44.293
104.921	44.298
105.922	44.696
106.922	43.596
107.922	43.296
108.922	40.796
109.955	27.296
