Time [s]	Current [nA]
0.000	16.511
1.000	52.795
2.000	49.395
3.000	52.595
4.062	49.336
5.000	56.284
6.001	51.595
7.001	49.795
8.001	52.695
9.066	51.356
10.000	50.209
11.000	51.695
12.066	52.152
13.058	47.576
14.000	50.207
15.000	52.095
16.001	51.695
17.001	52.195
18.001	51.795
19.001	53.295
20.001	48.295
21.001	51.695
22.063	52.914
23.001	49.355
24.001	52.695
25.001	48.395
26.001	51.446
27.001	52.295
28.001	51.595
29.001	51.395
30.001	49.095
31.001	53.495
32.001	51.695
33.001	50.495
34.001	50.195
35.001	47.395
36.002	50.595
37.002	47.995
38.002	49.795
39.002	49.295
40.002	49.795
41.002	47.395
42.002	52.795
43.068	50.370
44.001	49.834
45.001	51.995
46.002	53.895
47.002	53.195
48.002	49.695
49.002	52.495
50.002	52.595
51.002	52.695
52.002	54.695
53.002	53.495
54.002	48.295
55.002	51.395
56.003	50.595
57.003	52.795
58.003	52.795
59.003	48.495
60.003	50.995
61.002	50.245
62.002	50.495
63.058	49.806
64.002	55.185
65.002	50.195
66.003	46.095
67.003	50.395
68.003	50.995
69.003	53.195
70.062	49.853
71.003	50.154
72.003	51.195
73.064	52.587
74.058	48.184
75.003	56.396
76.004	47.095
77.004	52.195
78.004	50.995
79.003	50.746
80.003	52.595
81.062	49.853
82.003	50.686
83.003	51.295
84.003	50.295
85.003	52.395
86.004	47.995
87.004	57.294
88.004	48.495
89.004	52.295
90.004	52.095
91.004	54.295
92.004	53.895
93.069	50.605
94.066	52.252
95.004	50.208
96.059	49.995
97.004	55.550
98.004	21.398
