Time [s]	Current [nA]
0.000	15.710
0.938	53.518
1.938	53.900
2.938	55.900
3.938	52.700
4.938	51.800
5.938	51.500
6.938	49.300
7.938	53.100
8.938	46.900
9.938	50.400
10.938	49.400
11.938	50.600
12.938	52.500
13.937	48.849
15.001	52.632
15.937	47.863
16.937	50.100
17.937	52.400
18.945	51.786
19.937	46.169
20.937	50.400
21.937	50.800
22.937	50.600
23.937	52.700
24.937	48.200
25.937	50.800
26.937	50.000
27.937	50.000
28.937	52.100
29.937	47.300
30.936	49.850
31.936	51.200
32.936	50.700
33.936	50.800
34.936	53.000
35.936	52.300
36.936	46.500
37.996	52.642
38.936	47.660
39.936	52.300
40.941	52.438
41.936	47.136
42.936	51.000
43.936	49.900
44.936	50.200
45.936	52.400
46.936	47.400
47.935	50.651
48.935	51.200
49.997	51.695
50.935	44.456
51.935	50.400
52.935	52.200
53.935	50.400
54.935	50.000
55.935	49.800
56.935	46.800
57.935	51.500
58.935	50.200
59.935	49.500
60.935	48.900
62.037	45.554
62.935	51.559
63.935	50.200
64.935	47.800
65.934	47.247
66.934	48.200
67.934	45.300
68.934	48.900
69.995	44.863
70.934	50.479
71.934	48.200
72.934	47.700
73.934	45.700
74.934	49.900
75.934	48.400
76.934	48.300
77.934	47.300
78.934	45.300
79.989	47.014
80.934	50.688
81.934	48.800
82.933	46.346
83.995	45.009
84.933	48.401
85.933	48.400
86.933	47.600
87.933	47.300
88.933	47.300
89.933	44.400
90.933	48.100
91.933	48.600
92.991	44.518
93.933	45.223
94.933	46.800
95.933	48.900
96.987	45.446
98.000	46.989
98.933	45.016
99.933	47.300
100.988	45.308
102.005	13.668
