Time [s]	Current [nA]
0.000	11.018
1.000	36.896
2.058	44.135
3.000	46.704
4.000	48.595
5.001	53.395
6.001	47.095
7.001	50.795
8.000	43.539
9.000	49.095
10.000	48.395
11.000	48.795
12.000	51.495
13.000	47.095
14.000	49.895
15.001	47.995
16.001	48.895
17.063	48.300
18.001	47.863
19.001	50.395
20.001	49.395
21.001	48.795
22.001	47.895
23.057	46.586
24.001	48.830
25.001	49.444
26.001	49.995
27.001	49.495
28.001	46.195
29.001	50.295
30.001	51.395
31.001	49.695
32.001	49.495
33.001	49.895
34.001	47.595
35.002	51.895
36.002	47.095
37.002	54.994
38.002	55.594
39.002	55.494
40.002	57.994
41.002	56.494
42.002	50.695
43.001	54.549
44.001	55.394
45.002	57.194
46.060	54.059
47.002	52.967
48.066	57.325
49.002	52.452
50.066	56.479
51.059	51.556
52.002	59.379
53.002	50.295
54.002	54.295
55.003	54.495
56.003	55.594
57.003	49.895
58.003	59.794
59.003	50.295
60.002	53.848
61.002	53.695
62.002	56.294
63.002	50.795
64.002	54.395
65.002	53.995
66.003	53.395
67.058	52.601
68.003	57.455
69.003	50.095
70.003	52.395
71.068	54.361
72.003	50.690
73.003	55.594
74.003	50.295
75.003	53.795
76.066	54.608
77.003	50.795
78.070	51.166
79.003	52.514
80.065	50.842
81.003	56.284
82.003	51.695
83.003	51.695
84.003	48.595
85.003	53.495
86.004	52.095
87.004	51.995
88.066	49.053
89.004	55.751
90.004	48.995
91.066	50.183
92.004	54.792
93.004	51.495
94.004	51.395
95.003	48.243
96.004	53.095
97.004	47.095
98.004	5.399
