Time [s]	Current [nA]
0.000	19.948
1.051	50.328
2.000	53.209
3.000	49.395
4.000	49.695
5.001	49.895
6.001	47.895
7.001	51.595
8.001	51.095
9.001	49.895
10.000	49.445
11.065	49.854
12.000	50.369
13.000	50.695
14.000	50.595
15.001	50.395
16.001	50.495
17.064	50.136
18.001	50.368
19.001	46.095
20.001	50.195
21.001	49.395
22.001	51.295
23.060	48.343
24.001	48.561
25.002	50.295
26.002	49.195
27.062	50.938
28.001	49.516
29.001	51.095
30.001	45.595
31.062	50.513
32.001	47.067
33.057	47.628
34.001	53.173
35.002	48.495
36.068	55.904
37.002	52.885
38.002	54.695
39.002	56.294
40.002	51.595
41.002	55.594
42.068	55.998
43.002	52.564
44.060	53.208
45.001	58.018
46.002	51.095
47.002	54.595
48.002	54.295
49.002	54.395
50.002	56.694
51.002	51.895
52.002	54.795
53.002	53.595
54.002	53.995
55.003	54.495
56.064	52.021
57.003	55.053
58.003	54.295
59.003	53.895
60.003	53.595
61.003	50.595
62.003	55.694
63.002	54.349
64.002	53.595
65.002	52.895
66.003	53.195
67.003	50.795
68.003	47.395
69.003	27.497
70.003	34.897
71.062	40.034
72.003	51.961
73.003	47.895
74.003	50.995
75.003	52.995
76.004	52.295
77.004	52.095
78.004	49.395
79.066	55.173
80.013	49.942
81.003	52.419
82.059	48.007
83.003	56.456
84.003	47.995
85.003	52.995
86.004	51.895
87.004	51.095
88.067	48.067
89.004	51.542
90.058	50.849
91.004	49.784
92.064	53.391
93.004	48.080
94.060	49.711
95.004	53.384
96.005	48.295
97.005	51.795
98.074	35.544
