Time [s]	Current [nA]
0.000	44.296
1.003	51.640
2.000	47.337
3.000	50.395
4.000	51.095
5.000	51.995
6.001	46.895
7.000	50.345
8.000	50.495
9.000	49.695
10.000	48.895
11.000	50.895
12.000	47.595
13.000	49.895
14.063	51.359
15.056	44.653
16.001	53.434
17.092	46.283
18.001	48.510
19.063	46.888
20.001	51.381
21.001	48.195
22.001	45.295
23.001	50.195
24.000	49.044
25.000	47.295
26.001	28.397
27.001	31.697
28.001	42.096
29.001	47.995
30.003	48.199
31.001	43.282
32.001	51.895
33.001	45.295
34.001	51.495
35.001	44.796
36.002	48.195
37.063	49.854
38.002	46.321
39.064	47.359
40.002	49.142
41.002	48.395
42.001	48.544
43.001	48.895
44.001	49.995
45.001	46.195
46.002	49.195
47.002	49.495
48.002	48.495
49.002	48.595
50.066	48.209
51.002	49.034
52.002	48.195
53.002	47.195
54.005	47.453
55.002	45.532
56.003	50.095
57.003	44.396
58.003	49.595
59.002	49.144
60.002	48.595
61.002	49.995
62.002	45.795
63.002	49.995
64.002	48.395
65.002	48.395
66.061	47.349
67.003	47.448
68.064	53.529
69.003	48.877
70.065	46.511
71.003	52.660
72.003	46.695
73.003	51.095
74.003	45.695
75.003	49.195
76.004	47.895
77.078	51.298
78.074	43.871
79.069	51.352
80.064	49.040
81.003	45.682
82.003	48.895
83.003	49.395
84.003	46.395
85.060	47.060
86.065	53.129
87.004	46.321
88.097	50.864
89.004	45.420
90.061	48.056
91.004	52.063
92.004	48.795
93.004	47.995
94.003	49.845
95.003	45.495
96.004	48.395
97.004	49.895
98.004	49.695
99.004	49.495
100.004	46.995
101.063	47.965
102.004	52.173
103.090	36.921
