Time [s]	Current [nA]
0.000	25.484
1.062	55.932
2.000	52.559
3.000	50.200
4.000	53.100
5.000	53.000
6.000	51.500
7.000	51.500
8.000	49.000
9.000	53.400
10.000	51.500
11.000	51.800
11.999	51.151
13.065	50.375
13.999	51.178
14.999	52.100
15.999	48.800
16.999	52.000
17.999	51.200
18.999	53.700
19.999	49.300
20.999	51.800
21.999	52.200
22.999	51.100
24.060	55.042
25.081	46.033
25.999	57.298
26.999	48.400
28.065	53.096
28.998	49.732
29.998	53.700
30.998	47.700
31.998	51.700
33.060	53.390
33.998	49.041
34.998	52.900
35.998	48.400
36.998	54.300
37.998	52.300
39.060	48.023
39.998	54.478
40.998	49.800
41.998	54.400
43.054	48.864
44.055	51.249
44.998	50.053
45.998	51.500
46.997	54.354
47.997	52.500
48.997	28.100
49.997	34.800
50.997	47.200
51.997	45.500
52.997	53.000
53.999	46.607
54.997	52.505
55.997	51.200
56.997	51.600
57.997	52.400
58.997	48.900
59.997	51.700
61.051	48.008
61.997	53.383
62.997	52.700
63.996	47.648
64.996	51.800
65.996	52.100
66.996	50.300
67.996	50.500
68.996	48.000
69.996	50.900
70.996	45.400
71.996	49.400
73.056	50.660
73.996	49.255
74.996	49.900
75.996	51.900
76.996	46.700
77.996	49.800
78.996	49.600
79.996	51.600
80.996	50.900
82.062	45.779
82.995	47.588
83.995	48.300
84.995	49.800
85.995	51.300
87.060	50.704
87.995	49.733
88.995	50.800
89.995	50.900
90.995	48.300
91.995	52.500
92.995	51.800
93.995	50.200
94.995	51.000
95.995	51.600
96.995	48.700
98.050	50.616
99.107	36.329
