Time [s]	Current [nA]
0.000	21.277
0.999	56.651
1.999	51.295
3.056	53.259
3.999	58.531
5.058	51.602
6.000	57.531
7.000	56.694
8.000	51.595
9.056	52.267
10.000	56.668
11.056	51.510
12.087	59.160
13.000	50.378
14.055	53.739
15.001	57.137
16.001	53.395
17.059	50.562
18.000	59.718
19.000	50.895
20.000	54.295
21.000	55.394
22.056	51.605
23.000	57.727
24.000	51.295
25.000	56.794
26.001	49.695
27.001	53.995
28.001	58.894
29.001	50.595
30.068	53.134
31.001	53.800
32.062	56.451
33.001	51.646
34.001	58.094
35.065	53.616
36.061	55.215
37.001	57.973
38.001	58.694
39.001	59.194
40.001	60.894
41.001	60.494
42.001	61.294
43.001	54.395
44.001	63.994
45.060	56.044
46.065	62.083
47.002	59.546
48.002	54.595
49.002	58.894
50.002	58.894
51.002	58.994
52.002	60.894
53.001	61.255
54.001	54.495
55.053	60.603
56.064	58.056
57.002	59.482
58.002	61.994
59.002	53.995
60.002	58.994
61.002	58.494
62.002	58.394
63.002	61.294
64.002	60.594
65.002	53.795
66.058	59.331
67.066	56.939
68.003	58.265
69.003	60.294
70.003	52.695
71.002	58.953
72.002	56.994
73.060	58.973
74.002	57.638
75.002	49.695
76.003	26.997
77.003	41.296
78.003	47.095
79.003	48.995
80.003	56.894
81.072	52.661
82.003	56.063
83.003	56.394
84.003	56.494
85.003	58.494
86.062	55.098
87.004	55.408
88.003	56.251
89.003	55.694
90.133	22.830
