Time [s]	Current [nA]
0.000	0.698
1.000	59.294
2.000	54.295
3.000	56.994
4.000	56.294
5.000	56.050
6.000	57.894
7.000	52.995
8.000	55.794
9.000	56.994
10.000	56.194
11.000	56.094
12.000	52.895
13.000	57.894
14.000	51.195
15.054	57.354
16.001	59.023
17.001	52.895
18.001	56.794
19.064	52.017
20.066	56.182
21.001	52.401
22.000	55.150
23.000	57.894
24.000	52.595
25.066	57.928
26.001	52.829
27.001	55.294
28.001	57.594
29.001	50.095
30.001	56.694
31.001	55.994
32.001	55.594
33.060	52.686
34.063	58.519
35.061	52.151
36.002	54.724
37.061	56.274
38.002	53.342
39.093	56.823
40.001	54.400
41.001	56.894
42.067	51.683
43.001	53.314
44.001	53.495
45.001	55.095
46.002	56.494
47.061	52.214
48.002	51.217
49.002	54.495
50.002	54.695
51.002	56.394
52.061	52.686
53.059	55.505
54.056	53.254
55.003	51.792
56.003	54.995
57.063	52.353
58.083	53.230
59.002	58.536
60.064	49.901
61.060	53.910
62.068	56.344
63.064	50.798
64.056	55.337
65.062	53.328
66.063	53.941
67.065	56.182
68.062	49.744
69.083	52.590
70.069	55.775
71.069	52.195
72.065	52.806
73.061	49.393
74.069	54.955
75.002	51.656
76.059	49.995
77.003	56.244
78.003	54.495
79.088	50.225
80.003	53.547
81.060	51.367
82.003	56.304
83.003	53.195
84.003	51.195
85.003	54.995
86.004	53.895
87.060	50.279
88.004	55.715
89.004	54.295
90.004	53.195
91.004	51.295
92.065	52.492
93.003	6.503
