Time [s]	Current [nA]
0.000	46.000
1.000	49.500
2.000	50.100
3.000	49.600
4.000	52.000
4.999	51.752
5.999	45.200
6.999	48.400
7.999	49.400
8.999	51.600
9.999	46.900
10.999	49.000
11.999	49.000
12.999	48.700
14.069	50.000
14.999	49.247
15.999	46.000
16.999	48.900
17.999	49.000
18.999	49.500
20.062	52.587
20.999	49.093
22.081	45.564
22.998	50.273
23.998	50.200
24.998	49.800
25.998	51.000
27.060	48.682
27.998	48.507
28.998	48.900
30.053	46.066
30.998	53.545
31.998	46.100
32.998	51.100
33.998	50.000
34.998	50.700
35.998	50.000
36.998	47.200
37.998	50.200
38.998	49.500
39.997	49.750
40.997	50.100
41.997	50.200
43.083	46.041
43.997	52.954
44.997	49.900
45.997	49.300
46.997	49.800
47.997	47.200
48.997	51.700
49.997	51.500
50.997	49.400
51.997	49.700
52.997	49.600
53.997	47.600
55.062	53.709
55.997	49.412
56.997	50.400
57.996	49.349
58.996	46.700
59.996	51.200
60.996	49.800
61.996	49.500
63.052	45.739
63.996	52.225
65.055	48.062
65.996	49.411
66.996	49.795
67.996	48.995
68.996	48.395
69.997	46.395
70.997	49.995
71.997	49.695
72.997	49.095
73.997	49.095
74.996	49.144
75.996	47.095
76.996	51.495
77.996	48.995
78.996	48.995
79.997	48.795
80.997	50.395
81.997	44.296
82.997	50.395
84.054	45.785
85.051	48.140
86.051	47.895
86.997	52.215
87.997	45.895
88.997	49.295
89.998	47.895
90.998	48.895
91.998	49.595
92.997	44.340
93.997	51.195
94.997	48.995
95.997	48.995
96.997	43.796
97.997	50.795
98.997	50.995
99.998	44.796
100.998	43.996
