Time [s]	Current [nA]
0.000	41.896
1.000	52.695
2.000	47.995
3.000	51.095
4.000	49.295
5.000	49.395
6.001	52.695
7.001	48.295
8.001	51.095
9.058	49.096
10.001	53.441
11.001	50.695
12.001	52.795
13.001	48.695
14.001	50.595
15.001	49.395
16.001	49.945
17.001	51.795
18.001	47.095
19.001	52.295
20.001	50.695
21.001	49.795
22.001	50.295
23.001	51.995
24.001	47.195
25.001	50.695
26.002	51.095
27.002	51.095
28.002	52.095
29.002	46.195
30.060	49.900
31.002	54.559
32.002	50.395
33.001	49.645
34.001	51.895
35.064	51.031
36.059	47.533
37.002	54.714
38.002	51.395
39.002	51.795
40.002	53.495
41.002	47.995
42.002	51.695
43.002	49.895
44.002	38.696
45.002	30.997
46.003	36.896
47.003	46.195
48.003	48.195
49.003	49.895
50.088	52.161
51.002	47.151
52.057	49.853
53.002	54.069
54.002	50.495
55.002	50.595
56.003	52.595
57.003	48.195
58.078	52.181
59.003	48.536
60.060	47.110
61.003	53.123
62.003	52.395
63.003	48.195
64.003	50.995
65.003	49.795
66.060	47.817
67.004	55.079
68.003	46.242
69.003	50.795
70.003	49.695
71.060	47.204
72.003	52.487
73.003	52.395
74.003	47.495
75.003	52.095
76.004	50.895
77.004	51.195
78.004	53.095
79.004	47.195
80.058	50.469
81.004	53.906
82.004	50.495
83.004	50.595
84.004	48.195
85.067	54.326
86.004	48.661
87.004	51.295
88.004	51.395
89.084	47.495
90.004	56.081
91.061	45.880
92.004	55.562
93.004	51.095
94.004	51.395
95.004	53.895
96.005	48.895
97.005	51.295
98.005	50.195
99.005	50.395
100.005	6.099
