Time [s]	Current [nA]
0.000	44.196
1.002	50.993
2.000	47.891
3.000	49.995
4.059	46.454
5.001	53.236
6.001	46.695
7.001	50.795
8.058	48.056
9.001	52.593
10.001	49.795
11.001	49.695
12.000	45.641
13.000	51.595
14.000	49.595
15.001	48.495
16.001	48.495
17.001	51.295
18.063	48.771
19.001	47.437
20.001	48.795
21.001	48.195
22.001	47.995
23.001	45.895
24.001	50.695
25.002	49.595
26.002	48.995
27.002	48.395
28.059	47.394
29.001	48.191
30.001	48.795
31.001	48.895
32.001	48.895
33.001	43.596
34.001	49.395
35.002	50.095
36.062	45.656
37.002	46.485
38.002	48.095
39.065	51.641
40.002	47.274
41.002	44.696
42.064	49.430
43.002	46.051
44.002	47.395
45.003	49.395
46.003	49.195
47.002	44.940
48.002	47.695
49.059	49.286
50.002	46.655
51.002	47.795
52.002	45.096
53.002	48.195
54.063	48.063
55.003	45.682
56.003	49.995
57.003	49.295
58.003	43.796
59.003	47.895
60.003	46.895
61.003	47.495
62.003	49.795
63.003	45.795
64.060	49.569
65.002	44.688
66.059	48.385
67.065	49.200
68.061	44.775
69.003	46.598
70.062	48.909
71.061	47.142
72.003	44.582
73.065	50.277
74.003	48.716
75.003	44.096
76.004	47.095
77.004	52.595
78.004	46.195
79.006	49.296
80.004	43.483
81.004	47.895
82.003	46.942
83.003	47.495
84.003	50.995
85.003	51.295
86.004	45.095
87.004	48.295
88.004	47.895
89.004	49.695
90.083	46.057
91.009	54.314
92.004	45.121
93.004	48.795
94.004	49.595
95.004	51.995
96.005	46.295
97.005	50.195
98.005	30.197
99.004	31.628
100.004	40.596
101.004	46.095
102.004	45.095
103.004	49.295
104.083	37.253
