Time [s]	Current [nA]
0.000	39.500
1.000	51.700
2.000	50.800
3.000	48.200
4.000	50.800
5.000	48.900
6.062	46.893
7.000	52.239
8.000	48.900
9.000	46.600
10.000	51.300
11.057	47.304
12.000	52.280
13.000	49.300
13.999	47.247
14.999	51.400
15.999	53.500
16.999	51.300
18.057	47.921
19.056	50.250
19.999	50.371
20.999	52.000
21.999	51.400
23.061	47.928
23.999	54.158
24.999	46.400
25.999	52.500
26.999	53.200
27.999	50.900
28.999	51.000
30.062	48.260
30.999	52.508
31.998	53.353
32.998	52.000
34.055	47.304
34.998	53.340
35.998	50.300
36.998	48.400
37.998	52.500
38.998	51.500
40.055	47.777
40.998	53.022
41.998	51.800
42.998	47.300
43.998	50.200
44.998	50.300
46.055	47.493
46.998	53.128
48.057	48.914
48.997	49.894
49.997	50.200
50.997	50.100
51.997	49.800
52.997	47.200
53.997	51.500
54.997	50.200
55.997	50.800
56.997	49.100
57.997	49.800
58.997	47.100
59.997	52.400
60.997	50.900
61.997	50.200
62.997	50.100
63.997	47.300
64.997	50.100
65.997	56.200
67.059	52.354
67.996	59.232
69.052	52.652
70.053	57.842
70.996	56.522
71.996	56.700
73.052	52.746
74.053	55.145
74.996	60.233
75.996	51.500
76.996	58.200
77.996	56.200
78.996	55.600
80.053	50.047
80.997	31.462
82.048	31.589
82.996	46.730
84.057	46.277
85.058	52.847
86.079	53.183
87.056	58.854
88.052	52.711
89.057	55.423
90.052	55.377
91.052	55.500
91.995	60.657
93.050	50.047
93.995	58.942
95.052	51.939
96.052	54.600
96.995	57.264
98.049	0.474
