Time [s]	Current [nA]
0.000	36.696
1.060	46.788
2.000	52.654
2.999	43.940
3.999	47.395
4.999	51.495
6.065	46.662
7.000	48.124
8.000	48.495
9.057	44.177
10.000	50.048
11.000	42.896
12.000	48.895
13.000	48.395
14.061	44.482
15.000	45.043
16.001	50.895
17.063	46.700
18.001	47.330
19.073	44.958
20.066	48.535
21.000	45.713
22.000	47.795
23.000	48.495
24.000	48.795
25.000	43.796
26.001	46.895
27.001	47.695
28.062	51.267
29.060	44.985
30.001	51.429
31.001	44.096
32.060	49.381
33.001	46.010
34.064	51.265
35.001	48.448
36.002	44.896
37.001	48.043
38.001	48.295
39.001	50.095
40.001	49.295
41.056	47.199
42.062	48.902
43.001	46.002
44.001	47.895
45.001	49.995
46.002	49.895
47.059	46.448
48.002	46.549
49.002	47.695
50.002	49.195
51.002	48.595
52.002	49.395
53.002	43.696
54.002	47.995
55.067	49.431
56.002	48.124
57.002	45.895
58.061	45.793
59.002	51.004
60.002	47.895
61.002	48.195
62.002	45.395
63.002	48.495
64.002	47.695
65.002	46.895
66.003	47.495
67.061	46.215
68.065	52.485
69.078	51.722
70.067	47.720
71.065	51.798
72.059	51.906
73.066	52.924
74.002	52.132
75.002	52.895
76.003	51.195
77.068	53.328
78.003	52.080
79.003	48.895
80.075	54.006
81.003	50.965
82.003	51.695
83.003	51.995
84.003	49.695
85.003	53.995
86.004	47.795
87.004	51.095
88.004	55.094
89.066	50.372
90.003	50.689
91.003	51.295
92.003	46.695
93.058	52.601
94.062	50.593
95.003	52.067
96.004	53.095
97.018	50.882
98.004	47.663
99.004	51.295
100.004	52.895
101.004	46.495
102.050	29.825
