Time [s]	Current [nA]
0.000	12.100
1.000	51.395
2.000	46.595
3.000	53.495
4.000	51.895
5.063	48.394
6.001	48.503
7.000	50.846
8.000	52.195
9.000	53.495
10.000	47.295
11.000	51.295
12.000	50.895
13.070	51.771
14.000	51.930
15.064	49.666
16.001	50.155
17.001	50.395
18.064	51.453
19.001	51.222
20.001	52.795
21.001	46.895
22.001	51.095
23.001	50.295
24.061	51.693
25.001	50.048
26.001	52.595
27.001	46.595
28.001	50.995
29.001	35.596
30.001	29.097
31.001	40.996
32.001	45.795
33.001	44.496
34.001	49.795
35.002	50.195
36.002	51.995
37.002	52.695
38.002	46.295
39.002	50.795
40.002	50.895
41.002	52.095
42.001	51.046
43.001	51.895
44.001	46.195
45.060	51.129
46.002	53.073
47.063	49.665
48.002	47.067
49.002	51.095
50.002	50.395
51.002	50.595
52.002	51.695
53.002	52.395
54.002	49.095
55.003	51.595
56.003	51.395
57.003	51.295
58.003	52.895
59.061	50.562
60.002	49.942
61.002	50.395
62.002	50.295
63.002	50.695
64.058	50.374
65.002	51.266
66.003	53.195
67.003	55.094
68.003	55.494
69.003	57.694
70.003	57.894
71.003	51.295
72.003	56.694
73.003	55.794
74.003	55.494
75.003	57.994
76.004	52.995
77.003	56.151
78.003	55.494
79.003	54.994
80.003	57.494
81.003	51.795
82.003	56.394
83.003	55.794
84.003	55.094
85.003	54.795
86.004	56.494
87.058	49.616
88.004	58.028
89.004	54.495
90.004	54.495
91.004	56.194
92.004	50.095
93.060	53.782
94.004	57.198
95.003	53.748
96.004	53.395
97.004	56.094
98.004	0.400
