Time [s]	Current [nA]
0.000	33.398
1.000	47.995
2.058	48.955
3.000	54.029
4.000	50.095
5.001	49.495
6.001	46.295
7.001	51.095
8.001	48.995
9.001	49.395
10.001	48.695
11.001	49.095
12.001	46.295
13.001	50.495
14.001	48.995
15.001	48.644
16.060	45.793
17.001	48.773
18.001	49.195
19.001	49.995
20.001	48.695
21.001	47.595
22.001	48.195
23.001	45.095
24.062	52.115
25.002	47.173
26.002	47.995
27.002	48.295
28.002	45.695
29.002	49.695
30.002	51.295
31.002	49.295
32.002	47.695
33.001	47.743
34.001	50.095
35.002	45.695
36.002	50.095
37.002	47.695
38.002	48.395
39.002	49.395
40.002	45.595
41.002	48.895
42.002	39.996
43.002	26.297
44.002	34.397
45.003	38.996
46.003	45.995
47.003	47.895
48.003	47.295
49.003	48.195
50.002	48.744
51.062	47.448
52.002	47.655
53.002	49.095
54.002	47.395
55.003	47.195
56.003	48.295
57.003	44.796
58.003	47.495
59.003	48.095
60.061	44.797
61.061	47.195
62.003	47.447
63.003	49.795
64.003	49.695
65.003	48.495
66.004	48.795
67.004	49.795
68.078	48.040
69.003	46.266
70.064	45.142
71.003	50.900
72.003	47.795
73.064	47.121
74.065	50.145
75.003	47.330
76.004	48.595
77.004	48.395
78.004	45.695
79.082	49.624
80.004	49.236
81.004	48.895
82.004	48.695
83.004	48.095
84.004	49.495
85.003	45.941
86.004	49.495
87.061	45.596
88.004	51.639
89.004	48.495
90.004	45.395
91.061	47.867
92.004	51.320
93.004	47.595
94.004	48.495
95.064	46.926
96.005	49.517
97.005	48.095
98.062	45.123
99.005	50.896
100.107	49.541
101.005	44.762
102.060	47.010
103.004	52.113
104.004	48.595
105.004	0.400
