Time [s]	Current [nA]
0.000	0.919
1.000	48.695
2.000	51.195
3.000	51.995
4.000	53.695
5.000	47.595
6.001	51.895
7.001	51.095
8.001	53.995
9.001	53.695
10.001	47.095
11.001	51.295
12.001	57.294
13.001	49.695
14.001	57.594
15.002	57.194
16.002	50.395
17.002	54.395
18.001	59.253
19.001	51.995
20.001	57.194
21.001	49.895
22.001	54.994
23.001	53.595
24.001	54.795
25.001	56.094
26.002	51.795
27.002	54.895
28.002	53.695
29.002	58.494
30.002	51.595
31.002	56.394
32.002	49.595
33.002	55.994
34.002	54.395
35.001	54.149
36.002	50.695
37.063	57.676
38.058	49.241
39.002	56.668
40.002	53.495
41.002	55.894
42.002	49.095
43.002	55.694
44.002	53.895
45.061	50.279
46.003	56.151
47.003	55.094
48.003	50.395
49.003	53.195
50.003	52.895
51.003	53.495
52.003	54.495
53.002	49.044
54.002	54.995
55.002	53.295
56.003	52.495
57.003	52.495
58.003	54.395
59.003	49.695
60.003	53.595
61.003	51.795
62.003	51.995
63.003	52.395
64.060	51.461
65.003	52.275
66.004	52.795
67.004	51.495
68.004	51.295
69.004	53.695
70.003	49.645
71.003	52.395
72.060	49.380
73.058	51.498
74.003	55.021
75.003	53.895
76.004	49.495
77.004	52.395
78.004	52.095
79.060	48.953
80.066	52.579
81.004	51.274
82.004	51.995
83.004	52.295
84.004	51.195
85.064	48.437
86.005	56.849
87.005	48.795
88.004	51.747
89.004	50.795
90.054	48.281
91.004	55.784
92.086	48.978
93.004	51.084
94.060	48.385
95.004	53.067
96.005	0.400
