Time [s]	Current [nA]
0.000	54.031
1.062	56.586
2.000	53.939
3.000	55.094
4.000	54.695
5.000	56.694
6.001	51.195
7.001	57.294
8.001	55.294
9.001	54.995
10.063	50.937
11.001	55.112
12.001	56.794
13.001	50.695
14.001	59.294
15.002	55.194
16.002	50.295
17.002	58.094
18.001	56.751
19.001	51.895
20.001	55.194
21.001	55.194
22.001	56.694
23.001	52.795
24.001	55.294
25.001	55.594
26.002	54.695
27.002	54.895
28.002	52.095
29.002	56.394
30.002	55.394
31.002	55.294
32.002	55.294
33.002	56.894
34.002	52.195
35.001	56.050
36.002	55.894
37.059	51.840
38.002	58.213
39.002	56.694
40.002	52.595
41.002	55.994
42.002	54.994
43.002	55.694
44.002	57.794
45.002	50.695
46.003	57.394
47.003	56.194
48.065	51.690
49.003	58.843
50.068	54.267
51.003	55.289
52.003	55.794
53.002	49.945
54.002	55.194
55.002	57.394
56.003	54.994
57.003	53.495
58.003	55.894
59.003	54.795
60.003	54.695
61.003	59.294
62.003	54.495
63.003	57.694
64.003	57.994
65.003	56.594
66.004	57.394
67.069	56.426
68.004	56.893
69.058	54.264
70.058	56.894
71.003	60.206
72.003	58.694
73.003	54.395
74.003	57.394
75.066	54.232
76.004	60.655
77.004	57.094
78.004	54.395
79.005	59.235
80.004	52.147
81.004	56.794
82.004	56.494
83.004	58.794
84.004	52.895
85.004	61.994
86.005	52.695
87.005	56.294
88.004	56.351
89.004	39.896
90.130	25.841
