Time [s]	Current [nA]
0.000	26.138
1.000	55.594
2.000	54.495
3.064	53.848
4.000	50.102
5.001	51.595
6.001	46.195
7.001	49.995
8.000	54.349
9.000	46.895
10.071	48.361
11.058	53.490
12.000	49.889
13.062	51.501
14.000	48.183
15.000	51.895
16.061	48.957
17.058	51.349
18.055	49.945
19.060	49.846
20.001	48.667
21.057	49.995
22.001	55.079
23.061	48.108
24.059	49.895
25.062	49.596
26.001	50.474
27.001	52.195
28.077	46.928
29.001	49.670
30.001	49.595
31.001	49.695
32.001	51.695
33.001	52.095
34.001	46.295
35.001	54.395
36.057	47.578
37.002	50.048
38.002	52.495
39.007	50.741
40.002	47.332
41.064	52.443
42.002	47.970
43.060	48.955
44.001	50.367
45.001	50.195
46.002	49.495
47.002	49.295
48.061	48.909
49.002	49.198
50.002	51.495
51.002	50.795
52.002	49.995
53.060	47.443
54.002	55.090
55.065	50.277
56.003	48.609
57.003	49.995
58.003	50.795
59.003	51.995
60.003	46.395
61.058	50.042
62.002	54.020
63.002	49.295
64.002	49.595
65.002	51.695
66.003	47.595
67.065	48.300
68.003	52.660
69.003	49.895
70.003	50.195
71.003	47.995
72.003	51.095
73.003	50.195
74.003	49.895
75.003	49.695
76.004	51.895
77.004	47.795
78.003	51.146
79.066	47.879
80.070	49.995
81.003	54.335
82.064	50.231
83.003	50.155
84.070	47.043
85.003	48.763
86.004	50.095
87.066	53.573
88.004	49.995
89.004	50.095
90.004	46.795
91.004	50.295
92.063	51.742
93.004	49.836
94.004	48.195
95.066	51.644
96.004	48.183
97.004	53.895
98.066	49.713
99.004	49.249
100.004	6.899
