Time [s]	Current [nA]
0.000	6.060
0.941	30.709
2.003	40.486
2.941	41.680
3.941	39.796
4.941	44.696
6.002	47.354
6.942	43.719
7.941	48.243
8.941	43.396
9.941	46.395
10.941	46.395
11.941	45.395
12.941	46.695
13.941	46.895
14.941	41.896
15.942	45.995
16.942	44.596
17.942	44.196
18.999	44.556
20.007	46.622
21.007	45.795
21.942	43.311
22.942	45.295
23.996	44.303
24.942	48.621
26.008	44.409
27.007	44.840
28.003	44.975
29.004	45.050
29.942	44.878
30.997	44.071
32.007	45.243
32.942	42.349
34.008	46.431
34.942	44.107
35.943	46.495
36.943	42.996
38.008	46.850
38.943	43.632
40.005	46.511
40.943	45.624
41.943	47.095
42.942	42.038
43.942	45.595
44.942	46.095
45.943	45.995
46.943	48.495
47.943	43.496
48.943	46.095
49.943	45.895
50.943	45.795
52.000	44.745
52.943	46.549
53.943	45.995
54.943	46.695
55.944	44.796
56.944	45.195
57.944	46.695
58.944	43.396
59.944	46.595
60.943	45.941
61.943	45.995
62.943	47.795
63.943	48.095
64.943	43.096
65.944	46.495
66.944	45.395
67.944	45.595
68.944	47.795
69.999	45.114
70.944	44.334
72.010	47.181
72.944	43.679
73.944	47.195
74.944	47.095
75.945	43.696
77.010	47.601
78.005	45.523
78.944	43.659
79.944	47.495
80.944	47.295
81.944	41.996
83.009	48.164
83.944	44.594
84.944	47.295
86.007	45.193
86.945	45.518
88.010	47.695
88.945	44.167
89.945	45.995
91.001	45.829
91.999	48.091
92.945	44.604
93.945	46.595
94.945	45.895
95.945	46.542
96.945	48.295
97.945	43.696
99.010	47.883
99.945	43.846
100.945	45.795
101.945	47.995
102.945	43.296
103.945	45.695
104.945	45.995
105.946	45.895
106.946	45.995
108.013	44.138
108.946	46.726
109.946	45.995
110.946	8.999
