Time [s]	Current [nA]
0.000	21.382
1.000	59.294
2.000	57.094
3.000	54.495
4.000	56.494
5.001	55.694
6.001	55.794
7.000	58.052
8.062	55.173
9.000	54.046
10.058	52.641
11.000	58.805
12.000	56.494
13.061	54.848
14.000	55.692
15.056	52.980
16.001	58.619
17.001	55.394
18.060	54.385
19.001	55.467
20.001	56.294
21.056	52.507
22.001	58.195
23.001	55.095
24.000	57.252
25.001	53.295
26.059	52.925
27.001	58.487
28.001	54.795
29.002	57.437
30.001	52.447
31.001	56.294
32.001	56.094
33.001	55.194
34.001	55.194
35.002	57.594
36.064	55.268
37.002	54.366
38.002	55.094
39.065	56.815
40.002	55.918
41.002	51.195
42.001	58.152
43.001	56.494
44.001	55.494
45.058	51.983
46.002	61.117
47.002	52.795
48.002	56.594
49.002	55.594
50.002	55.094
51.002	57.494
52.002	56.194
53.002	53.495
54.002	56.494
55.003	55.394
56.003	55.694
57.059	55.203
58.065	58.145
59.002	54.210
60.002	55.494
61.002	55.694
62.002	56.194
63.002	53.095
64.002	57.994
65.002	55.994
66.003	55.094
67.055	52.181
68.003	60.648
69.003	52.495
70.003	56.294
71.062	53.252
72.003	58.974
73.003	55.794
74.011	57.137
75.003	52.414
76.004	55.994
77.003	55.250
78.003	55.494
79.003	52.795
80.003	57.094
81.003	56.594
82.003	55.994
83.057	52.462
84.003	58.768
85.003	58.494
86.004	53.295
87.004	56.994
88.004	55.794
89.004	55.594
90.067	28.878
