Time [s]	Current [nA]
0.000	46.895
1.062	51.878
2.000	50.208
3.058	48.199
4.000	54.453
5.000	48.695
6.066	53.891
7.074	46.027
8.000	55.826
9.000	50.395
10.000	50.595
11.000	48.695
12.000	52.895
13.000	51.895
14.000	50.595
15.000	50.595
16.001	47.995
17.094	52.602
18.001	52.255
19.001	51.195
20.001	52.295
21.001	52.795
22.001	50.195
23.001	54.795
24.001	53.095
25.000	52.747
26.001	52.995
27.001	48.595
28.001	54.695
29.063	52.349
30.001	56.817
31.001	53.195
32.001	49.295
33.001	54.595
34.001	55.294
35.001	49.195
36.062	54.617
37.002	50.633
38.002	52.895
39.002	55.394
40.058	51.415
41.002	51.796
42.062	54.523
43.062	52.495
44.001	52.710
45.001	50.395
46.084	53.414
47.002	52.609
48.002	52.295
49.002	52.495
50.002	53.895
51.002	54.595
52.002	48.795
53.002	52.095
54.002	51.995
55.002	54.295
56.003	48.995
57.081	53.798
58.003	52.164
59.064	53.623
60.002	49.888
61.002	53.995
62.002	49.695
63.068	54.028
64.002	50.102
65.002	51.595
66.060	50.704
67.082	51.658
68.068	54.457
69.068	51.895
70.068	51.195
71.065	52.151
72.062	48.641
73.066	54.277
74.003	50.368
75.003	50.795
76.004	51.395
77.065	50.042
78.083	51.174
79.003	53.799
80.065	48.112
81.065	51.495
82.065	51.495
83.064	54.149
84.060	48.188
85.003	55.562
86.004	51.095
87.062	48.577
88.004	55.196
89.070	51.027
90.004	52.029
91.004	51.595
92.065	48.252
93.004	54.308
94.004	53.295
95.063	46.782
96.093	27.764
