Time [s]	Current [nA]
0.000	6.859
1.000	52.595
2.061	52.492
3.000	48.664
4.000	52.595
5.000	47.795
6.000	50.646
7.000	49.695
8.000	49.895
9.000	51.895
10.000	47.195
11.000	50.595
12.000	50.495
13.000	49.595
14.066	50.933
15.000	49.781
16.001	47.295
17.001	50.195
18.001	49.495
19.001	49.095
20.001	51.495
21.010	51.135
22.063	47.858
23.065	50.494
24.000	47.482
25.000	49.295
26.001	51.495
27.067	49.057
28.001	48.496
29.001	50.095
30.001	49.395
31.001	46.795
32.001	49.895
33.001	51.695
34.001	49.795
35.001	49.795
36.065	46.562
37.002	50.155
38.002	51.095
39.002	50.195
40.002	49.795
41.001	49.845
42.001	45.795
43.001	51.395
44.062	48.723
45.001	49.196
46.063	51.267
47.002	47.812
48.002	51.495
49.060	48.766
50.002	48.934
51.002	49.495
52.002	49.295
53.076	50.833
54.002	50.967
55.002	47.395
56.003	50.495
57.069	51.402
58.002	48.334
59.002	51.295
60.002	46.895
61.002	50.395
62.002	50.895
63.002	50.295
64.002	49.995
65.002	52.595
66.003	48.195
67.003	51.895
68.003	50.895
69.003	50.395
70.003	48.095
71.003	52.095
72.003	51.795
73.003	50.495
74.003	50.495
75.003	45.695
76.061	49.664
77.003	55.515
78.003	46.195
79.003	50.595
80.003	50.795
81.003	52.295
82.003	50.495
83.003	47.995
84.003	50.595
85.070	51.308
86.004	48.817
87.004	52.395
88.004	48.095
89.070	53.184
90.004	48.710
91.065	53.058
92.004	49.090
93.003	51.847
94.065	49.995
95.061	45.925
96.061	50.095
97.004	53.017
98.004	47.695
99.004	52.195
100.067	47.784
101.004	0.427
