Time [s]	Current [nA]
0.000	35.747
1.000	54.595
2.000	54.395
3.061	52.681
4.000	53.349
5.062	50.985
6.053	53.173
7.057	52.983
8.001	53.279
9.001	55.494
10.001	48.895
11.061	56.504
12.056	53.060
13.000	51.266
14.000	55.594
15.000	55.994
16.062	51.173
17.062	52.995
18.052	53.429
19.001	53.103
20.068	52.104
21.060	54.430
22.053	54.879
23.052	37.734
24.001	39.617
25.002	52.495
26.057	54.118
27.060	56.624
28.059	55.150
29.052	51.959
30.001	51.628
31.001	52.395
32.001	49.195
33.058	54.488
34.058	52.495
35.053	52.510
36.058	49.448
37.002	58.469
38.060	51.129
39.058	52.500
40.058	52.995
41.097	52.642
42.002	53.475
43.002	55.094
44.067	50.230
45.063	53.261
46.059	52.806
47.002	52.381
48.002	54.595
49.061	49.665
50.058	52.452
51.054	52.706
52.002	50.206
53.058	52.078
54.002	56.986
55.061	50.562
56.062	52.043
57.059	52.151
58.003	52.325
59.003	54.295
60.003	48.095
61.003	53.495
62.073	54.481
63.066	53.469
64.002	52.559
65.002	50.295
66.059	50.374
67.059	52.595
68.003	55.609
69.003	49.495
70.072	54.812
71.003	50.586
72.003	53.995
73.003	52.695
74.003	53.595
75.003	50.095
76.060	52.457
77.064	53.381
78.055	53.173
79.065	52.371
80.004	52.817
81.084	49.810
82.059	55.584
83.063	54.078
84.003	51.910
85.003	53.295
86.004	55.294
87.004	55.594
88.064	50.750
89.060	53.408
90.055	53.964
91.004	51.944
92.004	54.095
93.060	53.214
94.063	53.933
95.004	21.039
