Time [s]	Current [nA]
0.000	43.974
1.000	54.695
2.000	53.495
3.000	54.295
3.999	50.345
4.999	53.895
6.000	52.095
7.058	49.428
8.010	56.927
9.000	48.480
10.000	54.195
11.000	51.995
12.000	51.395
13.000	50.795
14.000	52.595
15.001	48.995
16.063	49.336
17.001	54.152
18.001	50.595
19.001	51.095
20.001	48.695
21.000	52.547
22.000	44.196
23.000	25.697
24.000	32.997
25.000	38.596
26.001	46.695
27.001	48.695
28.063	46.229
29.001	53.086
30.001	50.095
31.001	47.795
32.001	51.895
33.001	50.895
34.001	49.895
35.002	50.095
36.002	47.495
37.063	47.969
38.002	54.095
39.001	49.745
40.001	49.295
41.001	49.595
42.001	46.795
43.001	51.195
44.001	49.695
45.063	45.990
46.002	51.646
47.002	45.395
48.002	48.795
49.002	51.895
50.002	49.695
51.002	49.495
52.002	49.695
53.002	50.795
54.002	46.795
55.003	49.495
56.002	48.844
57.002	48.995
58.002	50.095
59.062	48.391
60.002	49.463
61.002	49.895
62.002	49.295
63.060	46.309
64.058	50.897
65.002	49.571
66.003	49.895
67.003	48.795
68.003	48.995
69.003	49.095
70.003	46.995
71.003	50.795
72.003	49.195
73.003	48.595
74.002	49.445
75.002	50.595
76.003	47.795
77.003	50.095
78.003	48.695
79.060	46.258
80.003	51.532
81.003	46.295
82.003	50.695
83.003	50.595
84.003	48.995
85.061	46.069
86.004	53.335
87.062	43.757
88.004	52.118
89.066	46.700
90.004	52.340
91.003	44.840
92.003	50.195
93.003	49.795
94.003	44.696
95.003	48.295
96.004	48.195
97.004	49.095
98.004	48.195
99.004	45.695
100.064	50.184
101.004	47.336
102.004	5.299
